50	11
50.857143	5.9735169
51.714287	9.4078531
52.57143	12.63314
53.42857	10.044893
54.285713	14.598458
55.142857	16.954433
56	14.93088
56.857143	17.270607
57.714287	17.474581
58.57143	16.362576
59.42857	19.900055
60.285713	22.258862
61.142857	23.216635
62	22.060961
62.857143	14.356774
63.714287	23.186838
64.571426	24.840034
65.428574	22.013311
66.285713	22.973391
67.14286	28.601339
68	28.108324
68.85714	28
69.714287	30.43659
70.571426	27.909134
71.428574	33.599918
72.285713	33.223927
73.14286	28.071175
74	28.456814
74.85714	36.31662
75.714287	37.253025
76.571426	30.525103
77.428574	34.322239
78.285713	40.486279
79.14286	36.2393
80	35.68367
80.85714	33.359074
81.714287	28.180836
82.571426	38.134106
83.428574	38.974182
84.285713	27.376852
85.14286	34.540009
86	30.614473
86.85714	26.235758
87.714287	32
88.571426	32
89.428574	39.411201
90.285713	39.108917
91.14286	35.584072
92	32.549889
92.85714	29.661459
93.714287	29.742411
94.571426	29.29291
95.428574	33.025227
96.285713	31.829836
97.14286	33.583702
98	30.942266
98.85714	30.685135
99.714287	34.489964
100.57143	32.272034
101.42857	30.258989
102.28571	33.537464
103.14286	34.251438
104	33.823002
104.85714	33.318916
105.71429	20.152128
106.57143	32.373112
107.42857	29.824829
108.28571	29.139908
109.14286	29.680624
110	27.996893
110.85714	40.46664
111.71429	27.011431
112.57143	30.880075
113.42857	31
114.28571	32.804413
115.14286	30.397352
116	30
116.85714	30.802359
117.71429	35.609234
118.57143	31.851992
119.42857	33.516529
120.28571	35
121.14286	32.452339
122	31
122.85714	31
123.71429	32.617588
124.57143	31.462011
125.42857	29
126.28571	36.541424
127.14286	41.479572
128	33.481182
128.85715	32.742771
129.71428	36.634991
130.57143	34.855808
131.42857	30.292147
132.28572	39.110233
133.14285	36
134	35.838879
134.85715	34.869415
135.71428	33.799683
136.57143	32.139595
137.42857	33.960464
138.28572	33.028107
139.14285	35.937859
140	34.101398
140.85715	46.871578
141.71428	37.325081
142.57143	39.439465
143.42857	39.169773
144.28572	31.7939
145.14285	45.424553
146	39.613926
146.85715	40.275471
147.71428	34.482735
148.57143	35.591091
149.42857	41.766148
150.28572	38.012337
151.14285	35.139866
152	34.376434
152.85715	31.458693
153.71428	36.809212
154.57143	40.794724
155.42857	36.140976
156.28572	39.424004
157.14285	44.122925
158	41.694595
158.85715	43.319271
159.71428	42.247807
160.57143	38
161.42857	39.432167
162.28572	42.935707
163.14285	38.814735
164	37.683674
164.85715	36
165.71428	36
166.57143	36.483849
167.42857	42.32111
168.28572	47.628639
169.14285	34.011471
170	39.85033
170.85715	41.901138
171.71428	37.368866
172.57143	41.49905
173.42857	47.252441
174.28572	47.150707
175.14285	37.100597
176	41.393105
176.85715	42.225159
177.71428	41.248863
178.57143	50.435024
179.42857	44.879494
180.28572	43.712517
181.14285	46.306416
182	47.629108
182.85715	42.546566
183.71428	42.497124
184.57143	41.09034
185.42857	39.069126
186.28572	40.511745
187.14285	42.46706
188	44.465267
188.85715	45.441441
189.71428	46.418987
190.57143	50.173019
191.42857	50.133327
192.28572	42.352173
193.14285	43
194	41.459614
194.85715	39.998344
195.71428	45.261944
196.57143	45.279377
197.42857	43
198.28572	43.591038
199.14285	46.702232
200	48.45821
200.85715	39.867092
201.71428	39.558556
202.57143	43.273354
203.42857	36.792198
204.28572	47
205.14285	47.302696
206	56.933353
206.85715	50.077885
207.71428	43.221706
208.57143	48.687096
209.42857	47.145027
210.28572	53.365665
211.14285	41.548351
212	47.823776
212.85715	52.397137
213.71428	56.325489
214.57143	46.444786
215.42857	51.129761
216.28572	58.407768
217.14285	50.942444
218	50.943657
218.85715	52
219.71428	50.602127
220.57143	47.278168
221.42857	45.33865
222.28572	50.151089
223.14285	56.754864
224	57.174686
224.85715	54.818733
225.71428	50.559887
226.57143	52.446484
227.42857	57.077263
228.28572	54.871849
229.14285	52
230	47.614502
230.85715	43.470295
231.71428	46.721256
232.57143	49.563335
233.42857	46.058689
234.28572	39.982952
235.14285	38.164352
236	38.139912
236.85715	37.487759
237.71428	43.361523
238.57143	46.324677
239.42857	44.842522
240.28572	40.880409
241.14285	41.04826
242	38.108913
242.85715	41.773632
243.71428	36.165009
244.57143	39.562569
245.42857	36.979885
246.28572	34.127975
247.14285	39
248	39.960339
248.85715	42.806541
249.71428	31.192406
250.57143	38.168144
251.42857	32.421135
252.28572	36.366386
253.14285	40.380146
254	44.498127
254.85715	37.148624
255.71428	40.072899
256.57144	41.765713
257.42856	32.021053
258.28571	33.995384
259.14285	35.969925
260	42.822659
260.85715	39.151325
261.71429	41.84914
262.57144	45.74931
263.42856	34.899105
264.28571	41.302902
265.14285	39.297657
266	38.111225
266.85715	36.242062
267.71429	40.337273
268.57144	39.288555
269.42856	41.532269
270.28571	48.660244
271.14285	40.123184
272	39.624279
272.85715	37.597431
273.71429	40.948349
274.57144	40.439034
275.42856	43.850048
276.28571	46.518196
277.14285	47
278	39.600185
278.85715	38.462212
279.71429	36.115128
280.57144	43.529179
281.42856	37.87254
282.28571	38.847893
283.14285	41
284	46.397739
284.85715	47.667332
285.71429	39.770412
286.57144	39.245033
287.42856	45.480946
288.28571	49.264076
289.14285	45.625687
290	44.849125
290.85715	48.43396
291.71429	50
292.57144	45.852863
293.42856	44.171532
294.28571	47.888916
295.14285	47.148605
296	48.947132
296.85715	54.224895
297.71429	54.902107
298.57144	51.828705
299.42856	51.610367
300.28571	53
301.14285	51.95253
302	50.483181
302.85715	51.022335
303.71429	52.505604
304.57144	48.498837
305.42856	47.957932
306.28571	52.488266
307.14285	53
308	47.279465
308.85715	43.358547
309.71429	45.066444
310.57144	43.538052
311.42856	39.342308
312.28571	40.883251
313.14285	47.103973
314	42.451572
314.85715	39.756741
315.71429	44.1745
316.57144	49.15361
317.42856	49.440193
318.28571	46
319.14285	46.842262
320	45.913399
320.85715	40.931973
321.71429	39.229904
322.57144	47.09668
323.42856	49.940502
324.28571	41.40205
325.14285	43.994045
326	48.978188
326.85715	47.67149
327.71429	42.175953
328.57144	45.167286
329.42856	45.841125
330.28571	43.230957
331.14285	42
332	47.332336
332.85715	51.447414
333.71429	44.757118
334.57144	47.886158
335.42856	50.246819
336.28571	47.876411
337.14285	44.879608
338	42.626892
338.85715	43.861187
339.71429	50.720608
340.57144	53.657581
341.42856	46.514431
342.28571	47.70879
343.14285	53.627995
344	53.372299
344.85715	54
345.71429	56.235287
346.57144	57.392429
347.42856	52.251842
348.28571	52.124535
349.14285	51.749413
350	49.130856
350.85715	54.401852
351.71429	60
352.57144	58.477463
353.42856	55.617153
354.28571	52.694592
355.14285	51.696175
356	56.387688
356.85715	57
357.71429	57.39296
358.57144	56.815636
359.42856	55
360.28571	56.197491
361.14285	60.011189
362	59.35136
362.85715	51.139397
363.71429	51.94405
364.57144	58.58456
365.42856	63.446526
366.28571	68.464447
367.14285	62.442089
368	63.301121
368.85715	69
369.71429	69
370.57144	68.557877
371.42856	68.446304
372.28571	69.901192
373.14285	71.454964
374	76.134865
374.85715	77.744217
375.71429	71.644638
376.57144	69.475822
377.42856	71.441986
378.28571	74.456779
379.14285	81.409935
380	87
380.85715	78.442825
381.71429	85.260216
382.57144	96.392693
383.42856	90.911995
384.28571	91.638008
385.14285	87.050529
386	75.043793
386.85715	68.905312
387.71429	64.672043
388.57144	52.449455
389.42856	53.539936
390.28571	57.69347
391.14285	56
392	55.408188
392.85715	53.20499
393.71429	49.574272
394.57144	53.540375
395.42856	63.856682
396.28571	71.790565
397.14285	61.206699
398	63.076584
398.85715	69.969048
399.71429	84.304924
400.57144	101.12603
401.42856	110.78323
402.28571	141.39552
403.14285	154.70267
404	163.53352
404.85715	159.79282
405.71429	157
406.57144	139.24512
407.42856	124.75295
408.28571	115.91683
409.14285	110.91535
410	103.74393
410.85715	88.552139
411.71429	92.214203
412.57144	100.50169
413.42856	93.760437
414.28571	80.306076
415.14285	75.459869
416	73.283562
416.85715	65.171524
417.71429	62.236893
418.57144	64.680069
419.42856	58.663372
420.28571	55.248352
421.14285	63.363789
422	56.468163
422.85715	53.138725
423.71429	53.966114
424.57144	58.892879
425.42856	50.079636
426.28571	58.977196
427.14285	53.016525
428	54.176598
428.85715	60
429.71429	59.133301
430.57144	45.709099
431.42856	55.168236
432.28571	56.413975
433.14285	51.339836
434	54
434.85715	54.421066
435.71429	58.235355
436.57144	62.616287
437.42856	53.20998
438.28571	61.013966
439.14285	52.570732
440	53.064259
440.85715	57.790466
441.71429	54.897808
442.57144	62.150494
443.42856	52.291283
444.28571	55.759914
445.14285	57.153767
446	48.693615
446.85715	53.065804
447.71429	59.083046
448.57144	63.28529
449.42856	62.232109
450.28571	64.469231
451.14285	60.561398
452	58.179173
452.85715	60.24892
453.71429	58.154369
454.57144	53.536201
455.42856	57.048615
456.28571	58.541588
457.14285	54.519051
458	52.736237
458.85715	55.192066
459.71429	56
460.57144	44.609467
461.42856	45.170063
462.28571	49
463.14285	49.687675
464	54.94886
464.85715	57.726372
465.71429	47.557884
466.57144	45.530945
467.42856	43.644512
468.28571	44.609863
469.14285	46.649609
470	42.776203
470.85715	42.864822
471.71429	37.690018
472.57144	38.810505
473.42856	40.85117
474.28571	41.946026
475.14285	42
476	40.025574
476.85715	45.928364
477.71429	37.143917
478.57144	42.099438
479.42856	43.434139
480.28571	37.197052
481.14285	47.267544
482	34.684052
482.85715	38.525387
483.71429	38.515892
484.57144	48.587517
485.42856	43
486.28571	42.752804
487.14285	41.190769
488	41.641655
488.85715	44.212963
489.71429	39.385696
490.57144	44.912674
491.42856	43.769581
492.28571	42.958755
493.14285	41.729015
494	45.368011
494.85715	49.880375
495.71429	50.983444
496.57144	50.584869
497.42856	53.105316
498.28571	52.269352
499.14285	47.390556
500	49.380966
500.85715	53.952587
501.71429	57.025677
502.57144	59.401047
503.42856	65.087036
504.28571	62.492847
505.14285	62.553959
506	58.982571
506.85715	67.936562
507.71429	77.688629
508.57144	86.929611
509.42856	107.06713
510.28571	117.39382
511.14285	147.74655
512	162.81372
512.85712	212.82454
513.71429	275.74765
514.57141	407.25827
515.42859	631.93793
516.28571	912.11322
517.14288	1312.0834
518	1584.4111
518.85712	1638.9789
519.71429	1483.0228
520.57141	1082.2402
521.42859	706.98468
522.28571	457.38934
523.14288	297.83835
524	208.51001
524.85712	164.62256
525.71429	132.13589
526.57141	119.47919
527.42859	94.736282
528.28571	81.962524
529.14288	83.191307
530	83.845924
530.85712	70.843491
531.71429	63.638176
532.57141	65.335289
533.42859	55.542015
534.28571	48.085419
535.14288	51.554512
536	53.788948
536.85712	56.456841
537.71429	57.851097
538.57141	51.828598
539.42859	47.352493
540.28571	46.055511
541.14288	50.875496
542	47.994328
542.85712	47.154865
543.71429	50.721577
544.57141	47.10273
545.42859	47.866001
546.28571	46.832863
547.14288	44.807308
548	41.855377
548.85712	45.888824
549.71429	40
550.57141	42.306206
551.42859	46.274639
552.28571	45
553.14288	45
554	42.221951
554.85712	37.511379
555.71429	34.938343
556.57141	31.743368
557.42859	32.989609
558.28571	36.898567
559.14288	39.335739
560	41.402512
560.85712	42
561.71429	46.626144
562.57141	43.161526
563.42859	42
564.28571	48.127819
565.14288	40.802723
566	44.733028
566.85712	40.087589
567.71429	42.073761
568.57141	45.72723
569.42859	41.362988
570.28571	44.11087
571.14288	38.816906
572	42.000633
572.85712	39.6548
573.71429	44.726913
574.57141	44.309883
575.42859	46.040199
576.28571	46.848866
577.14288	47.103855
578	43.131367
578.85712	37.978237
579.71429	47.419689
580.57141	47.848156
581.42859	43.390041
582.28571	42.352383
583.14288	37.877625
584	42.531059
584.85712	41.181995
585.71429	48.03627
586.57141	44.946758
587.42859	46.641312
588.28571	38.731159
589.14288	35.121277
590	42.985264
590.85712	40.764565
591.71429	35.935524
592.57141	46.180614
593.42859	40.949013
594.28571	43.232365
595.14288	33.193821
596	40.3437
596.85712	49.639408
597.71429	48.479881
598.57141	45.203281
599.42859	45.232933
600.28571	43
601.14288	43.525074
602	46.831673
602.85712	49
603.71429	45.100155
604.57141	44.383736
605.42859	42.0611
606.28571	44.878807
607.14288	48.454693
608	45.55468
608.85712	41.381691
609.71429	44.782391
610.57141	45
611.42859	47.064919
612.28571	49.07605
613.14288	49.760422
614	47.183933
614.85712	42.58984
615.71429	41.996563
616.57141	44.120213
617.42859	42.33746
618.28571	43.763626
619.14288	44.573803
620	42.587902
620.85712	39.454021
621.71429	43.600319
622.57141	46.790272
623.42859	40.801899
624.28571	47.031929
625.14288	46.549835
626	44.212418
626.85712	43.167137
627.71429	48.269691
628.57141	49.923798
629.42859	46.122459
630.28571	42.035038
631.14288	44.190052
632	47
632.85712	46.222099
633.71429	42
634.57141	43.249863
635.42859	46.406063
636.28571	45.690201
637.14288	46.608418
638	42.925159
638.85712	41.923988
639.71429	47.677086
640.57141	46.499306
641.42859	40.217205
642.28571	42.075298
643.14288	37.455257
644	42.763397
644.85712	43.351379
645.71429	41.252136
646.57141	34.531616
647.42859	43.719345
648.28571	32.977821
649.14288	32.561741
650	40
