50	11.090326
50.857143	10.127724
51.714287	13.05589
52.57143	16.266279
53.42857	17
54.285713	13.700771
55.142857	15.060755
56	19.93088
56.857143	23.541212
57.714287	23.949163
58.57143	20.70322
59.42857	24
60.285713	23.482277
61.142857	24.166363
62	30.942343
62.857143	27.085421
63.714287	33.906582
64.571426	32.946678
65.428574	32.226299
66.285713	48.547634
67.14286	39.664433
68	38.108326
68.85714	37.148239
69.714287	46.746361
70.571426	40.500111
71.428574	42.399944
72.285713	52.328217
73.14286	50.106766
74	46.385796
74.85714	51.168144
75.714287	53.394154
76.571426	54.482067
77.428574	55.627079
78.285713	51.905231
79.14286	48.619652
80	49.025505
80.85714	51.30341
81.714287	52.795208
82.571426	53.185425
83.428574	47
84.285713	47.9179
85.14286	52.195015
86	46.077106
86.85714	46.921413
87.714287	45.006298
88.571426	48.855759
89.428574	43.441601
90.285713	46.564342
91.14286	43.584072
92	55.250557
92.85714	48.645844
93.714287	48.22723
94.571426	48.292912
95.428574	44.645645
96.285713	45.536129
97.14286	52.375557
98	47.008476
98.85714	38.947105
99.714287	43.38961
100.57143	49
101.42857	49.839325
102.28571	49.078175
103.14286	46
104	46
104.85714	46.556763
105.71429	47.755756
106.57143	47.208961
107.42857	46.248283
108.28571	38.699543
109.14286	43.638752
110	48.643967
110.85714	44.38097
111.71429	53.979996
112.57143	47.209869
113.42857	47
114.28571	48.804413
115.14286	49
116	54.008522
116.85714	50.988205
117.71429	52.304619
118.57143	50.793709
119.42857	49.296696
120.28571	52.348286
121.14286	50.178509
122	47.394947
122.85714	49.859543
123.71429	52.539196
124.57143	49.446815
125.42857	47.904369
126.28571	46.894707
127.14286	45.054741
128	46.860886
128.85715	47.439877
129.71428	46.920086
130.57143	41.716713
131.42857	53.720821
132.28572	46.777557
133.14285	46.958649
134	51
134.85715	51.522343
135.71428	54.699524
136.57143	51.720806
137.42857	48.118607
138.28572	50.953156
139.14285	46.103569
140	54.543716
140.85715	48.564209
141.71428	52.447884
142.57143	53
143.42857	43.037296
144.28572	47.405422
145.14285	52.084911
146	56.709312
146.85715	51.586796
147.71428	57.200653
148.57143	53.129559
149.42857	51.510765
150.28572	52.401234
151.14285	52.569935
152	54.082375
152.85715	57.56884
153.71428	58.540882
154.57143	58.373692
155.42857	54.416348
156.28572	47.804363
157.14285	49.375416
158	51.041893
158.85715	53.319271
159.71428	53.415936
160.57143	51.734119
161.42857	50.761307
162.28572	50.638577
163.14285	52.444202
164	52.846947
164.85715	66.27375
165.71428	53.625599
166.57143	42.64513
167.42857	50.37463
168.28572	56.761269
169.14285	48.02103
170	58.725609
170.85715	49.494305
171.71428	51.778679
172.57143	57.398857
173.42857	61.501629
174.28572	54.356365
175.14285	56.299801
176	55.401722
176.85715	59.649059
177.71428	60.248863
178.57143	57.096912
179.42857	53.895264
180.28572	55.712521
181.14285	57
182	55.741779
182.85715	57.423752
183.71428	64.828537
184.57143	61.180679
185.42857	52.861748
186.28572	53.558727
187.14285	58.445099
188	56.347321
188.85715	50.117119
189.71428	54.865849
190.57143	61.41349
191.42857	59.748714
192.28572	58.182606
193.14285	55.640633
194	60.383846
194.85715	59.570957
195.71428	62.833599
196.57143	65.838135
197.42857	57.251522
198.28572	53.16713
199.14285	61.122208
200	57.925072
200.85715	62.867096
201.71428	60.882893
202.57143	51.545841
203.42857	48.080269
204.28572	61.386776
205.14285	50.272427
206	58.923832
206.85715	51.089012
207.71428	53.904984
208.57143	55.895699
209.42857	59.709942
210.28572	67.275047
211.14285	60.884773
212	61.738617
212.85715	57.753578
213.71428	62.819603
214.57143	64.811943
215.42857	62.623417
216.28572	57.364769
217.14285	63.547966
218	64.528168
218.85715	64
219.71428	67.494682
220.57143	66.958626
221.42857	66
222.28572	62.136684
223.14285	61.251621
224	64.433754
224.85715	67.181267
225.71428	69.720055
226.57143	67.109329
227.42857	64.538628
228.28572	65.521355
229.14285	68.017128
230	69.512726
230.85715	66.648514
231.71428	58.557491
232.57143	56.366653
233.42857	56.117367
234.28572	52.840912
235.14285	60.776237
236	59.023857
236.85715	53.644608
237.71428	53
238.57143	48.779186
239.42857	41.232845
240.28572	48.108578
241.14285	53.538879
242	44.372528
242.85715	52.731617
243.71428	53.572964
244.57143	40.093575
245.42857	44.612068
246.28572	47.563988
247.14285	49.130089
248	46.280449
248.85715	53.438694
249.71428	55.470039
250.57143	52.475346
251.42857	56.842274
252.28572	62.717644
253.14285	49.771912
254	47.188202
254.85715	49.900917
255.71428	47.708397
256.57144	40.210857
257.42856	49.021053
258.28571	50.995388
259.14285	45.090221
260	53.771992
260.85715	50.151325
261.71429	51.899426
262.57144	49.188019
263.42856	54.550449
264.28571	47.697098
265.14285	49.702343
266	57.110195
266.85715	48.331345
267.71429	49.602364
268.57144	55.990059
269.42856	48.559101
270.28571	50.330124
271.14285	54.292271
272	50.939301
272.85715	46.79657
273.71429	49.948349
274.57144	58.024342
275.42856	52.299904
276.28571	58.350082
277.14285	60.249912
278	52.600185
278.85715	51.462215
279.71429	47.672684
280.57144	54.529179
281.42856	53.085213
282.28571	57.925564
283.14285	50.739513
284	47.349434
284.85715	57.995018
285.71429	50.512531
286.57144	56.331131
287.42856	56.598652
288.28571	57.424271
289.14285	55.625687
290	53
290.85715	51.78302
291.71429	49.799644
292.57144	50.777344
293.42856	59.614944
294.28571	66.733345
295.14285	62.867489
296	55.616745
296.85715	61.343361
297.71429	63.608418
298.57144	59.457176
299.42856	53.095322
300.28571	54.901169
301.14285	61.523735
302	59.932728
302.85715	58
303.71429	59.011211
304.57144	56.999226
305.42856	56.968449
306.28571	60.976532
307.14285	58.627258
308	51.663021
308.85715	52.717094
309.71429	58.466778
310.57144	60.847797
311.42856	60.713943
312.28571	56.18977
313.14285	57.584103
314	58.451572
314.85715	55.317551
315.71429	55.695297
316.57144	53.138557
317.42856	50.293461
318.28571	48.423653
319.14285	52.369053
320	56.58268
320.85715	58.481632
321.71429	56.260429
322.57144	53.690235
323.42856	63.615868
324.28571	64.793846
325.14285	59.809532
326	53.41745
326.85715	51.787003
327.71429	54.959923
328.57144	58.389095
329.42856	57.841125
330.28571	55.615479
331.14285	55.766804
332	62.332336
332.85715	65.688652
333.71429	53.971531
334.57144	50.886158
335.42856	57.012726
336.28571	59.752823
337.14285	56.373463
338	59.611744
338.85715	64.372238
339.71429	63.88382
340.57144	60.143101
341.42856	55.514431
342.28571	55.596153
343.14285	56.651951
344	56.212212
344.85715	62.767632
345.71429	60.117645
346.57144	66.09761
347.42856	67.388824
348.28571	58.374844
349.14285	59.750195
350	61.376949
350.85715	63.133949
351.71429	64.242981
352.57144	63
353.42856	62.617153
354.28571	64.689644
355.14285	65.533493
356	62.326134
356.85715	67.561127
357.71429	73.929604
358.57144	76.841698
359.42856	71.207603
360.28571	65.210037
361.14285	64.435799
362	71.567574
362.85715	67.591339
363.71429	74.828079
364.57144	78.937569
365.42856	74.446518
366.28571	82.422592
367.14285	79.163132
368	75.290337
368.85715	80.90612
369.71429	84.24791
370.57144	79.347252
371.42856	80.01683
372.28571	83.197609
373.14285	90.554314
374	92.811409
374.85715	88.046448
375.71429	100.65286
376.57144	113.66152
377.42856	124.36464
378.28571	125.08643
379.14285	132.81987
380	153.96321
380.85715	163.49664
381.71429	170.63011
382.57144	176.96935
383.42856	158.77396
384.28571	144.58281
385.14285	143.86169
386	123.04842
386.85715	107.54735
387.71429	97.461464
388.57144	85.629219
389.42856	77.876038
390.28571	74.57663
391.14285	71.493729
392	77.28537
392.85715	84.795006
393.71429	80.542114
394.57144	77.615601
395.42856	86.726677
396.28571	98.949379
397.14285	95.963684
398	121.17473
398.85715	137.65636
399.71429	161.28363
400.57144	197.97754
401.42856	244.84923
402.28571	284.54752
403.14285	337.15979
404	372.77817
404.85715	371.35135
405.71429	331.44421
406.57144	281.01065
407.42856	235.01181
408.28571	188.2614
409.14285	160.80562
410	139.57782
410.85715	128.6716
411.71429	117.38107
412.57144	107.68559
413.42856	96.936485
414.28571	90.823601
415.14285	89.15329
416	88.141785
416.85715	79.301697
417.71429	81.526215
418.57144	82
419.42856	78.379066
420.28571	76.165565
421.14285	67.636215
422	75.47332
422.85715	71.231209
423.71429	74.864449
424.57144	69.12854
425.42856	72.964607
426.28571	79.980995
427.14285	74.900848
428	69.2649
428.85715	77.731445
429.71429	71.537758
430.57144	65.772751
431.42856	87.570015
432.28571	72.586029
433.14285	77.320335
434	72.760666
434.85715	79.824631
435.71429	90.382324
436.57144	85.467613
437.42856	78
438.28571	80.581833
439.14285	89.068298
440	82.22937
440.85715	80.790474
441.71429	75.559128
442.57144	81.374825
443.42856	86.165131
444.28571	86.853394
445.14285	81.676918
446	85.403404
446.85715	97.552681
447.71429	105.11356
448.57144	101.18275
449.42856	95.232109
450.28571	94.938477
451.14285	90.631607
452	96.731232
452.85715	98.11158
453.71429	90.132317
454.57144	82.985519
455.42856	87.243088
456.28571	92.54158
457.14285	87.958931
458	91.523682
458.85715	89.847588
459.71429	92.980446
460.57144	88.507896
461.42856	82.348175
462.28571	83.338577
463.14285	76.43557
464	73.706978
464.85715	76.905487
465.71429	73.524803
466.57144	68.172638
467.42856	68.570328
468.28571	64.975342
469.14285	66.474411
470	75.447594
470.85715	70.081429
471.71429	61.035027
472.57144	50.042217
473.42856	49
474.28571	60.352314
475.14285	49.401024
476	49
476.85715	55.031837
477.71429	58.827301
478.57144	53.248592
479.42856	58.282932
480.28571	61.079189
481.14285	51.307018
482	47.778526
482.85715	57.892563
483.71429	52.179703
484.57144	54.614269
485.42856	59.196644
486.28571	52.011219
487.14285	51.967182
488	60.293518
488.85715	61
489.71429	58.291443
490.57144	56.261974
491.42856	58.152096
492.28571	60.164978
493.14285	65.083939
494	54.175983
494.85715	52.960125
495.71429	54
496.57144	59.811184
497.42856	63.342033
498.28571	61.423119
499.14285	68.218887
500	67.367325
500.85715	56.840515
501.71429	58.401802
502.57144	77.812553
503.42856	79.912964
504.28571	86.263107
505.14285	91.33094
506	100.03486
506.85715	98.687813
507.71429	118.50301
508.57144	134.33495
509.42856	143.26367
510.28571	167.31616
511.14285	202.58479
512	238.53429
512.85712	293.93634
513.71429	364.35852
514.57141	477.23907
515.42859	564.23627
516.28571	702.94104
517.14288	775.58087
518	739.17712
518.85712	725.84998
519.71429	656.78082
520.57141	588.83905
521.42859	500.3461
522.28571	405.21353
523.14288	332.61163
524	290.37918
524.85712	261.63931
525.71429	218.31026
526.57141	191.16585
527.42859	168.77737
528.28571	156.03748
529.14288	141.66084
530	130.15407
530.85712	133.4313
531.71429	125.42743
532.57141	119.33235
533.42859	105.75322
534.28571	105.82916
535.14288	105.72274
536	92.376854
536.85712	91.456841
537.71429	94.553291
538.57141	93.23674
539.42859	83.881233
540.28571	82.055511
541.14288	91.750992
542	87.91494
542.85712	73.42588
543.71429	83.582367
544.57141	77.280899
545.42859	70.865997
546.28571	69.832863
547.14288	71.1866
548	77.44886
548.85712	71.375069
549.71429	75.920189
550.57141	71
551.42859	69.911964
552.28571	69.186089
553.14288	70.570297
554	70
554.85712	61.564484
555.71429	57.246632
556.57141	64.949104
557.42859	63.814552
558.28571	64.797134
559.14288	63.660652
560	68.311302
560.85712	72.471512
561.71429	77.626144
562.57141	74.967941
563.42859	71.474121
564.28571	74.50161
565.14288	75.910812
566	69.373756
566.85712	69.982483
567.71429	61.129082
568.57141	67.890892
569.42859	66.362984
570.28571	69.491928
571.14288	66.81691
572	69.600883
572.85712	64
573.71429	64.81926
574.57141	66.380234
575.42859	64.653267
576.28571	64.767426
577.14288	68.524628
578	75.20536
578.85712	69.568916
579.71429	58.930054
580.57141	67.731262
581.42859	70.730286
582.28571	62.819046
583.14288	68.931816
584	70.097305
584.85712	63.654797
585.71429	68.429016
586.57141	69.157791
587.42859	70.760872
588.28571	74.675041
589.14288	75.959572
590	81.988945
590.85712	71.960754
591.71429	70.532242
592.57141	65.468224
593.42859	68.525497
594.28571	66.593063
595.14288	67.806175
596	66.229134
596.85712	71.680298
597.71429	67.399834
598.57141	65.412033
599.42859	72.441765
600.28571	69.127823
601.14288	72.351051
602	72.203987
602.85712	68.826752
603.71429	67.400101
604.57141	73.610542
605.42859	74.795822
606.28571	69.345428
607.14288	70.454697
608	63.248028
608.85712	70.141197
609.71429	61.544022
610.57141	56.055584
611.42859	61.707867
612.28571	53.836536
613.14288	64.239578
614	67.142494
614.85712	70.333969
615.71429	58.754295
616.57141	56.759571
617.42859	65.386963
618.28571	70.563683
619.14288	63.721405
620	64.824203
620.85712	64.908043
621.71429	62.560032
622.57141	63
623.42859	61.050713
624.28571	63.473824
625.14288	66.483391
626	61.486961
626.85712	69.161499
627.71429	62.21719
628.57141	61
629.42859	62.938766
630.28571	71.754745
631.14288	58.31675
632	63.327595
632.85712	65.533264
633.71429	66.260017
634.57141	76.250305
635.42859	66.812126
636.28571	66.070595
637.14288	71.566338
638	72.682213
638.85712	67.101349
639.71429	71.566673
640.57141	70.248268
641.42859	72.826523
642.28571	67.13253
643.14288	64.18158
644	61.894646
644.85712	58.527069
645.71429	57.126068
646.57141	52.37973
647.42859	55.887733
648.28571	58.133072
649.14288	63.578697
650	56.550861
