50	9.8516169
50.857143	9.1277237
51.714287	10.027945
52.57143	12.266278
53.42857	13
54.285713	11.350386
55.142857	11.015188
56	12.46544
56.857143	12.152929
57.714287	12.906774
58.57143	15.318713
59.42857	13.699983
60.285713	13.517722
61.142857	13.916819
62	11.939039
62.857143	20.728645
63.714287	19.09342
64.571426	20.159967
65.428574	23
66.285713	23
67.14286	22.066442
68	29.133406
68.85714	25.741188
69.714287	25.812199
70.571426	25.227283
71.428574	25.733324
72.285713	22.529909
73.14286	26.238434
74	28.385796
74.85714	25.703047
75.714287	24
76.571426	23.00717
77.428574	23.830557
78.285713	26.418953
79.14286	26.239302
80	25.68367
80.85714	27.910233
81.714287	28.409582
82.571426	25.360928
83.428574	29.810884
84.285713	28.235083
85.14286	24.229996
86	25.845789
86.85714	23.960707
87.714287	23.011028
88.571426	29.747581
89.428574	27.2208
90.285713	30.564339
91.14286	26.730093
92	23.549891
92.85714	26.897566
93.714287	23.545542
94.571426	33.313454
95.428574	26.595194
96.285713	23.536131
97.14286	28.583706
98	28.752119
98.85714	29.105793
99.714287	27.570248
100.57143	24.45466
101.42857	26.678652
102.28571	26.309437
103.14286	26.196545
104	32.431664
104.85714	28.164864
105.71429	26.732729
106.57143	27.537258
107.42857	23.576544
108.28571	30.020639
109.14286	24.638752
110	29.430346
110.85714	22.419071
111.71429	32.988571
112.57143	29.119925
113.42857	28.064976
114.28571	28
115.14286	27.13245
116	18.652464
116.85714	25.023592
117.71429	25.463589
118.57143	23.52914
119.42857	26.516529
120.28571	30.00897
121.14286	24.630846
122	21.605055
122.85714	22.571909
123.71429	23
124.57143	23
125.42857	25.856554
126.28571	28.556387
127.14286	27.589052
128	28.139114
128.85715	28.257231
129.71428	25.634989
130.57143	27.857508
131.42857	29.493515
132.28572	26.665348
133.14285	22.383459
134	24.483366
134.85715	27.652931
135.71428	31.699524
136.57143	29
137.42857	29.197676
138.28572	33.962524
139.14285	30.082855
140	30
140.85715	28.161203
141.71428	31.558306
142.57143	23.401342
143.42857	35.283607
144.28572	27.591188
145.14285	28.084911
146	33.451176
146.85715	31.437109
147.71428	30
148.57143	34.591091
149.42857	32.606163
150.28572	25.209869
151.14285	31.68886
152	36.29406
152.85715	34
153.71428	33.513626
154.57143	33.457897
155.42857	30.563908
156.28572	28.01091
157.14285	32.877075
158	32.179726
158.85715	27.554184
159.71428	33
160.57143	29.543573
161.42857	22.148252
162.28572	28.361425
163.14285	26.185266
164	27.632654
164.85715	30.734421
165.71428	29.211449
166.57143	31.080639
167.42857	32
168.28572	32.159157
169.14285	37.977058
170	26.299339
170.85715	34.555126
171.71428	32.221321
172.57143	29.300571
173.42857	35.12785
174.28572	41.095757
175.14285	32.925545
176	35.79483
176.85715	33.900627
177.71428	36.755692
178.57143	32.193829
179.42857	32.104733
180.28572	32.321873
181.14285	35.266037
182	36.370892
182.85715	34.788128
183.71428	35.748562
184.57143	35.324432
185.42857	34
186.28572	34
187.14285	34
188	34.465267
188.85715	34.558559
189.71428	34.418987
190.57143	36.983139
191.42857	37.005123
192.28572	30.239128
193.14285	27.330078
194	28.308077
194.85715	29.570955
195.71428	33.357483
196.57143	37.117508
197.42857	29.748478
198.28572	36
199.14285	34.419979
200	27.770897
200.85715	32.664547
201.71428	37.558556
202.57143	41.727509
203.42857	38.207802
204.28572	28.511023
205.14285	37.727573
206	29.047606
206.85715	33.94437
207.71428	39.809967
208.57143	37.156452
209.42857	38.854973
210.28572	36.271858
211.14285	39.557613
212	40.869308
212.85715	35.055012
213.71428	38.15686
214.57143	35.752243
215.42857	31.831219
216.28572	36.407768
217.14285	38
218	38.735916
218.85715	39
219.71428	34.107445
220.57143	40.84597
221.42857	43.015945
222.28572	42
223.14285	43.87743
224	45
224.85715	40.865562
225.71428	35.706593
226.57143	39.002293
227.42857	46.231785
228.28572	44.307774
229.14285	40
230	37.076336
230.85715	33.059406
231.71428	30.639372
232.57143	33.366653
233.42857	36.47887
234.28572	33.80682
235.14285	36.164352
236	34.65184
236.85715	30.776968
237.71428	32.978859
238.57143	30.350643
239.42857	32.390324
240.28572	39.119591
241.14285	32.817699
242	23.054457
242.85715	25.010504
243.71428	24.097021
244.57143	31.437431
245.42857	34.020115
246.28572	36.684029
247.14285	30.826017
248	30
248.85715	30.146231
249.71428	30.470041
250.57143	27.237673
251.42857	29.842274
252.28572	36.542015
253.14285	32
254	31.811798
254.85715	29.099083
255.71428	31.182251
256.57144	35.835999
257.42856	29.03158
258.28571	31.99308
259.14285	32.984962
260	28.126671
260.85715	28
261.71429	23.251436
262.57144	32.373268
263.42856	32.074924
264.28571	35.651455
265.14285	34.198437
266	36.666321
266.85715	32.605156
267.71429	32.867455
268.57144	29.57711
269.42856	29.84409
270.28571	32.497593
271.14285	29.707727
272	29
272.85715	29
273.71429	28.210329
274.57144	32.682899
275.42856	32.45998
276.28571	31.240902
277.14285	34.750435
278	33.040073
278.85715	29.806679
279.71429	30.442436
280.57144	31
281.42856	27.489437
282.28571	26.692556
283.14285	27.684032
284	30.69887
284.85715	40.66235
285.71429	38.427647
286.57144	33.052979
287.42856	33.28027
288.28571	31.471849
289.14285	31.249804
290	34.4655
290.85715	32.957546
291.71429	31
292.57144	33.369793
293.42856	35
294.28571	34.422218
295.14285	31.718884
296	36.76651
296.85715	42
297.71429	38.706322
298.57144	36.542824
299.42856	42.367893
300.28571	41.160549
301.14285	35.476265
302	35.516819
302.85715	37.022335
303.71429	34.460766
304.57144	32.000259
305.42856	33.494743
306.28571	33.511734
307.14285	31.07272
308	32.336979
308.85715	35.05658
309.71429	36.800667
310.57144	35.380512
311.42856	30.914423
312.28571	31.547441
313.14285	27.863911
314	31.096855
314.85715	36.047344
315.71429	33.609402
316.57144	37
317.42856	35.720097
318.28571	32.729038
319.14285	32.684528
320	37.086601
320.85715	34.623131
321.71429	31.91963
322.57144	35.748436
323.42856	31.807934
324.28571	34.6082
325.14285	33.410721
326	32.74765
326.85715	38.819496
327.71429	36.608021
328.57144	35.221809
329.42856	34.772583
330.28571	37.53809
331.14285	37.316181
332	34.142643
332.85715	34.103088
333.71429	33.64991
334.57144	36.491074
335.42856	35.506363
336.28571	36.127357
337.14285	34.493855
338	37.746212
338.85715	37.138813
339.71429	36.604424
340.57144	39.88586
341.42856	37.628609
342.28571	35.887363
343.14285	36.604038
344	39.883099
344.85715	37.627937
345.71429	37.745094
346.57144	43.09761
347.42856	46.633297
348.28571	43.249069
349.14285	43.999218
350	41.638664
350.85715	45.244034
351.71429	42.10746
352.57144	37.858097
353.42856	39.062778
354.28571	43.231529
355.14285	42
356	42
356.85715	42.390282
357.71429	43
358.57144	44.579151
359.42856	47.396198
360.28571	47.201672
361.14285	48.413425
362	49.16217
362.85715	46.225971
363.71429	46.763988
364.57144	45.41544
365.42856	41.391403
366.28571	37.112961
367.14285	40.426319
368	44.87101
368.85715	50
369.71429	46.495815
370.57144	46.421249
371.42856	55.124203
372.28571	56.747017
373.14285	54.454967
374	54.081142
374.85715	55.790668
375.71429	59.942142
376.57144	59.572533
377.42856	61.845306
378.28571	63.086437
379.14285	67.377182
380	73.007355
380.85715	81.067261
381.71429	88.456627
382.57144	89.091972
383.42856	95.132004
384.28571	92.723984
385.14285	82.119675
386	72.668213
386.85715	61.884514
387.71429	57.663979
388.57144	55.067421
389.42856	53.707989
390.28571	49.233673
391.14285	45
392	42.632751
392.85715	45.786686
393.71429	50.212864
394.57144	44.844028
395.42856	47.233345
396.28571	52.263523
397.14285	53.639664
398	60.483273
398.85715	67.938095
399.71429	75.987221
400.57144	93.176445
401.42856	118.44959
402.28571	145.69949
403.14285	163.13463
404	182.64481
404.85715	182.51353
405.71429	169.76437
406.57144	146.02574
407.42856	128.50375
408.28571	99.906937
409.14285	85.830711
410	73.051872
410.85715	74.746307
411.71429	72.793686
412.57144	61.43475
413.42856	52.408356
414.28571	56.011681
415.14285	52.766457
416	57.149303
416.85715	43.212879
417.71429	49.815544
418.57144	50.106644
419.42856	46.379066
420.28571	40.4967
421.14285	43.717236
422	43.058521
422.85715	51.583824
423.71429	46.203323
424.57144	47.957153
425.42856	47.00885
426.28571	44.984798
427.14285	41.049576
428	44.117733
428.85715	48.268551
429.71429	53.364418
430.57144	43.21273
431.42856	46.25235
432.28571	49
433.14285	49.113277
434	49.492889
434.85715	45.438576
435.71429	43.389771
436.57144	51
437.42856	51.368328
438.28571	52.205585
439.14285	48.356098
440	47.605537
440.85715	53
441.71429	53.259853
442.57144	52.350212
443.42856	47.708717
444.28571	50.06657
445.14285	53.769176
446	49.371063
446.85715	55.065804
447.71429	55.886444
448.57144	53.224369
449.42856	52.808025
450.28571	53.156414
451.14285	52
452	55.641647
452.85715	57.167385
453.71429	59.378708
454.57144	56.884155
455.42856	52.670162
456.28571	49.500927
457.14285	47.360714
458	46.527534
458.85715	52.940502
459.71429	60.22776
460.57144	54.03912
461.42856	51.303646
462.28571	53.338577
463.14285	55.375351
464	49.637173
464.85715	47.726372
465.71429	44.270676
466.57144	47.592838
467.42856	43.503849
468.28571	42.804932
469.14285	41.350391
470	43.534279
470.85715	44.864822
471.71429	40.575016
472.57144	40
473.42856	30.744154
474.28571	33.784103
475.14285	39.799488
476	36.051144
476.85715	31.992041
477.71429	31.115133
478.57144	34.850845
479.42856	32.353664
480.28571	36.263351
481.14285	30.154972
482	39
482.85715	38.525387
483.71429	36.179707
484.57144	35.789299
485.42856	32.127098
486.28571	34.764019
487.14285	31.809233
488	34.88055
488.85715	36.368828
489.71429	33.645721
490.57144	32.812206
491.42856	37.154369
492.28571	38.591751
493.14285	36.703239
494	40.47205
494.85715	38.358871
495.71429	38.074493
496.57144	43.301975
497.42856	40
498.28571	39.423119
499.14285	39
500	40.251705
500.85715	37.094826
501.71429	42.427479
502.57144	46.700523
503.42856	42.639687
504.28571	41.75119
505.14285	41.223019
506	38.589546
506.85715	44.624374
507.71429	46.85429
508.57144	52.286404
509.42856	62.987549
510.28571	58.404121
511.14285	75.272186
512	92.773796
512.85712	97.251556
513.71429	117.0236
514.57141	172.04013
515.42859	254.92203
516.28571	392.48996
517.14288	586.34937
518	784.13104
518.85712	864.59204
519.71429	789.34241
520.57141	590.74207
521.42859	377.37521
522.28571	233.21353
523.14288	165.11249
524	128.38139
524.85712	105.52969
525.71429	80.470505
526.57141	67.22583
527.42859	64.633553
528.28571	56.443787
529.14288	58.834793
530	56.229641
530.85712	52
531.71429	43.70377
532.57141	43.005878
533.42859	42.211205
534.28571	42.457291
535.14288	46.795429
536	36.165798
536.85712	40.370514
537.71429	42
538.57141	32.302082
539.42859	39.206894
540.28571	40.944489
541.14288	36.124504
542	32.034023
542.85712	37.88385
543.71429	34.512764
544.57141	29.027285
545.42859	38.133999
546.28571	38.498592
547.14288	36.198784
548	34.912701
548.85712	30.375071
549.71429	36.10865
550.57141	35.647289
551.42859	37.911961
552.28571	34.418552
553.14288	29.85148
554	31.630085
554.85712	38.984829
555.71429	36.222542
556.57141	35.384949
557.42859	36.804157
558.28571	36.632854
559.14288	37
560	36.298744
560.85712	33.792736
561.71429	32.228977
562.57141	32
563.42859	34.525875
564.28571	38.50161
565.14288	36.267574
566	34.106789
566.85712	34.982483
567.71429	37.96312
568.57141	35.672676
569.42859	30.181494
570.28571	32.254036
571.14288	34.490143
572	36.400379
572.85712	34.236401
573.71429	35.273087
574.57141	38.169186
575.42859	40.572872
576.28571	37.91856
577.14288	40.579227
578	40
578.85712	37.021763
579.71429	36.139896
580.57141	35.710293
581.42859	37.049797
582.28571	43.533333
583.14288	40.503498
584	36.548653
584.85712	36
585.71429	38.410881
586.57141	36.473381
587.42859	40.402187
588.28571	41
589.14288	44.838299
590	38.012894
590.85712	45.803802
591.71429	41.31184
592.57141	44.297668
593.42859	37.101982
594.28571	29.767633
595.14288	39.089886
596	34.671848
596.85712	40.598522
597.71429	44
598.57141	44.802189
599.42859	40.698803
600.28571	39.808266
601.14288	37.073727
602	38.061348
602.85712	41.95541
603.71429	38.050079
604.57141	39.075603
605.42859	40
606.28571	33.793903
607.14288	32.81823
608	39.029312
608.85712	33.667957
609.71429	31.108805
610.57141	37.92218
611.42859	35.805244
612.28571	29.467661
613.14288	24.916651
614	38.510361
614.85712	35.384762
615.71429	35.242271
616.57141	41.413475
617.42859	38.987625
618.28571	37.381813
619.14288	35.44281
620	34.3535
620.85712	40.607281
621.71429	39.519745
622.57141	33.580544
623.42859	35.248814
624.28571	40.47382
625.14288	35.324757
626	36.937885
626.85712	32.169956
627.71429	37.147968
628.57141	34.304829
629.42859	46.602005
630.28571	29.982481
631.14288	30.076952
632	45.781605
632.85712	44.155579
633.71429	44.592499
634.57141	41.250191
635.42859	37.781811
636.28571	38.549004
637.14288	37.090591
638	42.803684
638.85712	40.974663
639.71429	38.252079
640.57141	38.500694
641.42859	41
642.28571	38.962349
643.14288	40.908775
644	30.354904
644.85712	45.134823
645.71429	38.512829
646.57141	37.924053
647.42859	35.084198
648.28571	30.022177
649.14288	31.631956
650	38.671623
