50	14.283873
50.857143	15.71807
51.714287	16
52.57143	17.899418
53.42857	20.182043
54.285713	22.099743
55.142857	23.507595
56	25.396317
56.857143	27.847071
57.714287	27.855936
58.57143	31.109659
59.42857	40.099945
60.285713	36.705692
61.142857	36.466179
62	49.352554
62.857143	51.814064
63.714287	56.439484
64.571426	51.586544
65.428574	61.946754
66.285713	58.106438
67.14286	63.601341
68	63.108326
68.85714	60.444717
69.714287	72.182945
70.571426	75
71.428574	70.600052
72.285713	73.858124
73.14286	72.725983
74	73.456818
74.85714	75
75.714287	75
76.571426	73.510757
77.428574	67.423599
78.285713	71.635933
79.14286	80.435806
80	75.73468
80.85714	76.752251
81.714287	69.12056
82.571426	74.092712
83.428574	70.81089
84.285713	70.458954
85.14286	72.540009
86	68.691582
86.85714	65.196465
87.714287	70.022057
88.571426	83.495163
89.428574	67.324799
90.285713	65.108917
91.14286	65.853981
92	66.816704
92.85714	64.661461
93.714287	65.484818
94.571426	69.535454
95.428574	66.303902
96.285713	62.731934
97.14286	57.221729
98	58.495762
98.85714	61.473553
99.714287	60.020069
100.57143	63.546612
101.42857	67.32135
102.28571	63.462532
103.14286	62.748562
104	67.254669
104.85714	66.937836
105.71429	60.221214
106.57143	63.373112
107.42857	60.649658
108.28571	58.720184
109.14286	57.958126
110	65.786377
110.85714	63.114292
111.71429	65.968567
112.57143	55.329788
113.42857	71.830421
114.28571	67.586761
115.14286	61.794704
116	61
116.85714	61.802361
117.71429	63.536411
118.57143	63.264568
119.42857	65.813225
120.28571	72.357246
121.14286	66.083183
122	65.235382
122.85714	67.428093
123.71429	68.078392
124.57143	67.984802
125.42857	66.523911
126.28571	67.774452
127.14286	67.534309
128	65.518822
128.85715	66.954338
129.71428	66.904968
130.57143	70.142494
131.42857	68.506485
132.28572	68.665352
133.14285	68.793236
134	86.260925
134.85715	72.914101
135.71428	78.499207
136.57143	73.651009
137.42857	69.039536
138.28572	70.046844
139.14285	74.896431
140	82.594414
140.85715	86.677597
141.71428	77.214653
142.57143	86.31839
143.42857	81.3582
144.28572	95.212875
145.14285	90.516495
146	90.225586
146.85715	100.26352
147.71428	93.065796
148.57143	89.311737
149.42857	90
150.28572	85.209869
151.14285	83.13987
152	87.247131
152.85715	79.210869
153.71428	75.322838
154.57143	82.915794
155.42857	82.281952
156.28572	85.228371
157.14285	90.372093
158	85.652702
158.85715	87.554184
159.71428	92.123901
160.57143	91.063515
161.42857	96.864334
162.28572	106.21286
163.14285	107.5558
164	112.21429
164.85715	124.92951
165.71428	131.31717
166.57143	133.5968
167.42857	129.5887
168.28572	140.55704
169.14285	161.00383
170	162.9501
170.85715	164.90114
171.71428	178.8934
172.57143	190.79771
173.42857	184.99675
174.28572	187.39717
175.14285	175.62575
176	179.39311
176.85715	172.47673
177.71428	173.75569
178.57143	150.32378
179.42857	141.70158
180.28572	126.40302
181.14285	120.95963
182	121.37089
182.85715	117.36438
183.71428	108.00575
184.57143	101.88296
185.42857	100.46544
186.28572	100.51174
187.14285	103.93412
188	108.3958
188.85715	117.94592
189.71428	129.67595
190.57143	130.81012
191.42857	130.8718
192.28572	128.71738
193.14285	122.63087
194	127.84347
194.85715	120.43071
195.71428	111.90446
196.57143	103.83813
197.42857	97.437119
198.28572	96.83287
199.14285	88.877792
200	92.229103
200.85715	86.670906
201.71428	79.228821
202.57143	88.818336
203.42857	87.216057
204.28572	89.795593
205.14285	86.211891
206	92.866707
206.85715	79.155769
207.71428	80.936653
208.57143	83.843544
209.42857	97.912285
210.28572	88.996811
211.14285	100.45164
212	108.95447
212.85715	91.31575
213.71428	90.494118
214.57143	85.316422
215.42857	85.584389
216.28572	94.497925
217.14285	81.904068
218	80.679573
218.85715	85.582695
219.71428	87
220.57143	85.639084
221.42857	83.015945
222.28572	89.082741
223.14285	89.870949
224	96.518135
224.85715	107.3157
225.71428	113.29341
226.57143	126.11622
227.42857	128.53642
228.28572	128.73494
229.14285	143.58136
230	154.94911
230.85715	146.65347
231.71428	136.81416
232.57143	136.81667
233.42857	125.17605
234.28572	111.38636
235.14285	104.34258
236	95.511932
236.85715	92.289215
237.71428	92.361519
238.57143	94.350647
239.42857	89.30146
240.28572	80.413063
241.14285	79.836456
242	80.945541
242.85715	76.76313
243.71428	74.864014
244.57143	80.125137
245.42857	78.428162
246.28572	81.368057
247.14285	71.043892
248	75.039665
248.85715	73.655762
249.71428	92.217712
250.57143	75.069527
251.42857	82.263008
252.28572	75.267227
253.14285	68.760292
254	78.690071
254.85715	89.148621
255.71428	91.671951
256.57144	82.92971
257.42856	80.12632
258.28571	91.972313
259.14285	86.090225
260	96.721329
260.85715	104.69735
261.71429	95.502869
262.57144	98.749306
263.42856	94.374626
264.28571	110.43154
265.14285	86.778122
266	90.22142
266.85715	93.636917
267.71429	87.927818
268.57144	94.701508
269.42856	88.403191
270.28571	82.004814
271.14285	84.292267
272	87.436417
272.85715	86.398285
273.71429	91.527687
274.57144	98.463379
275.42856	88.44986
276.28571	92.590988
277.14285	95.750084
278	88.600182
278.85715	97.697701
279.71429	87.57563
280.57144	92.661476
281.42856	103.31901
282.28571	101.1521
283.14285	109.26048
284	112.65057
284.85715	110.66734
285.71429	111.9717
286.57144	114.94702
287.42856	119.84082
288.28571	120.10388
289.14285	134.62254
290	148.31462
290.85715	155.86792
291.71429	163.80142
292.57144	175.29428
293.42856	199.15872
294.28571	218.9334
295.14285	207.4619
296	211.3524
296.85715	208.98195
297.71429	180.53159
298.57144	160.48611
299.42856	151.24248
300.28571	139.50626
301.14285	130.42879
302	121.76455
302.85715	113.4665
303.71429	119.07847
304.57144	133.00182
305.42856	141.48422
306.28571	141.04694
307.14285	158.75462
308	178.09315
308.85715	176.47169
309.71429	177.93356
310.57144	194.24431
311.42856	210.17116
312.28571	211.16791
313.14285	223.96025
314	241.65331
314.85715	254.39185
315.71429	266.9584
316.57144	292.79816
317.42856	330.78546
318.28571	353.69461
319.14285	369.47623
320	398.85031
320.85715	421.85849
321.71429	427.26044
322.57144	423.87735
323.42856	422.11273
324.28571	408.59796
325.14285	401.61905
326	375.38321
326.85715	357.87003
327.71429	366.47214
328.57144	357.10904
329.42856	349.06854
330.28571	343.69287
331.14285	336.16599
332	339.14114
332.85715	366.89899
333.71429	393.29984
334.57144	412.18524
335.42856	430.88297
336.28571	444.1123
337.14285	474.07123
338	508.3125
338.85715	548.72858
339.71429	596.51038
340.57144	642.54004
341.42856	696.45544
342.28571	766.79669
343.14285	856.08826
344	916.06097
344.85715	1004.2753
345.71429	1149.4115
346.57144	1291.4681
347.42856	1391.2266
348.28571	1524.2367
349.14285	1628.2631
350	1722.9316
350.85715	1741
351.71429	1733.4298
352.57144	1672.2788
353.42856	1591.4686
354.28571	1521.7589
355.14285	1341.2034
356	1155.2161
356.85715	944.30737
357.71429	720.98267
358.57144	560.96619
359.42856	430.3992
360.28571	331.07526
361.14285	258.09485
362	219.8649
362.85715	190.28833
363.71429	163.23195
364.57144	155.41544
365.42856	148.45866
366.28571	132.92889
367.14285	128.98422
368	124.82787
368.85715	110.96191
369.71429	107.43803
370.57144	109.32638
371.42856	106.09054
372.28571	104.05537
373.14285	100.81059
374	94.675438
374.85715	101.79066
375.71429	96.991776
376.57144	91.330757
377.42856	92.596687
378.28571	91.456779
379.14285	93.491814
380	98.483452
380.85715	97.96637
381.71429	93.508675
382.57144	89.877365
383.42856	91.742012
384.28571	92.251579
385.14285	91.74202
386	84.711998
386.85715	77.642036
387.71429	81.7733
388.57144	87.932579
389.42856	80.182747
390.28571	73.153267
391.14285	69.909355
392	74.693558
392.85715	75.811646
393.71429	70.574272
394.57144	71.462387
395.42856	71.753334
396.28571	73.527046
397.14285	66.684357
398	63.944981
398.85715	71.563499
399.71429	71.008522
400.57144	64.949585
401.42856	69.833183
402.28571	73
403.14285	74.405327
404	73.577744
404.85715	74.441437
405.71429	74.268883
406.57144	85.096809
407.42856	87.500534
408.28571	87
409.14285	94.711617
410	102.47406
410.85715	122.19417
411.71429	131.00789
412.57144	165.32118
413.42856	202.66241
414.28571	248.25818
415.14285	289.02164
416	311.30612
416.85715	341.83456
417.71429	360.98642
418.57144	350.49301
419.42856	332.70581
420.28571	302.56631
421.14285	225.65526
422	177.63341
422.85715	128.26584
423.71429	111.50832
424.57144	92.407043
425.42856	75.150429
426.28571	75.958191
427.14285	64.966949
428	63
428.85715	62.910484
429.71429	61.17334
430.57144	63.858181
431.42856	62.588818
432.28571	69.097672
433.14285	69.320335
434	64.380333
434.85715	66.017509
435.71429	60.154415
436.57144	60.14867
437.42856	56.368328
438.28571	57.40419
439.14285	59.507305
440	73.935745
440.85715	64.544968
441.71429	57.779564
442.57144	60
443.42856	56.504616
444.28571	54.133141
445.14285	66.38459
446	64.354889
446.85715	64.513123
447.71429	58.14407
448.57144	59.265976
449.42856	66
450.28571	66.84359
451.14285	66.245598
452	63.089588
452.85715	63.888409
453.71429	63.066158
454.57144	62.536201
455.42856	63.427074
456.28571	64.707947
457.14285	64.759521
458	63
458.85715	61.211899
459.71429	56.316715
460.57144	60.328075
461.42856	65.30365
462.28571	70.015732
463.14285	70.624649
464	65.758118
464.85715	62.547256
465.71429	66.475197
466.57144	61.110748
467.42856	64.496147
468.28571	73.244385
469.14285	64.27755
470	70.447594
470.85715	65.946251
471.71429	72.079979
472.57144	72.094749
473.42856	79.404678
474.28571	80.94603
475.14285	77.133675
476	84.897713
476.85715	84.960205
477.71429	80.028786
478.57144	81.497185
479.42856	90.009743
480.28571	76.907921
481.14285	77.501465
482	86.811035
482.85715	73.63282
483.71429	77.539124
484.57144	79.394646
485.42856	77.225418
486.28571	78.247192
487.14285	77.111794
488	73.467583
488.85715	78.262344
489.71429	81
490.57144	82.449768
491.42856	82.306465
492.28571	80.857742
493.14285	83.270981
494	80.08799
494.85715	81.400314
495.71429	78.454475
496.57144	76.169739
497.42856	79.552658
498.28571	88.653244
499.14285	84.773247
500	86.761932
500.85715	89.396553
501.71429	90.025673
502.57144	86.096336
503.42856	89.087036
504.28571	91
505.14285	93.33094
506	100.42789
506.85715	97.031723
507.71429	98.562874
508.57144	98.118935
509.42856	103.44775
510.28571	109.59588
511.14285	133.02959
512	141.89355
512.85712	145.36336
513.71429	171.81721
514.57141	195.64746
515.42859	252.35085
516.28571	315.9136
517.14288	433.94644
518	646.8222
518.85712	796.35724
519.71429	813.07452
520.57141	736.05701
521.42859	540.4809
522.28571	383.49359
523.14288	290.99475
524	232.88028
524.85712	202.446
525.71429	165.49487
526.57141	152.07834
527.42859	143.6541
528.28571	128.73767
529.14288	117.61738
530	111.69185
530.85712	113.03912
531.71429	101.5984
532.57141	103.34705
533.42859	103.8168
534.28571	95.442192
535.14288	90.72274
536	97.100525
536.85712	94.905273
537.71429	76.978035
538.57141	89.869324
539.42859	88.352493
540.28571	78.555107
541.14288	82.875496
542	74.051033
542.85712	82.806419
543.71429	78.34803
544.57141	82.89727
545.42859	80.659996
546.28571	73.002815
547.14288	75.415833
548	66.623451
548.85712	69.624931
549.71429	64.48558
550.57141	62.728676
551.42859	54.901436
552.28571	52.883484
553.14288	47.586143
554	55
554.85712	50.037933
555.71429	50.839115
556.57141	49.794262
557.42859	50.381294
558.28571	52.101433
559.14288	44.321304
560	50.817585
560.85712	42.492172
561.71429	47.252289
562.57141	44.355114
563.42859	54.787418
564.28571	50.872181
565.14288	55.464851
566	56
566.85712	55.017517
567.71429	53.926239
568.57141	50.327324
569.42859	56.635227
570.28571	62.618942
571.14288	60.490143
572	61.600887
572.85712	60.018803
573.71429	74.365425
574.57141	78.309883
575.42859	82.12059
576.28571	91.069695
577.14288	100.62848
578	101.96301
578.85712	101.95647
579.71429	105.86011
580.57141	112.01398
581.42859	123.48963
582.28571	127
583.14288	127
584	116.84057
584.85712	126.74481
585.71429	117.33834
586.57141	104.73573
587.42859	96.836929
588.28571	74.868515
589.14288	72.040428
590	60.022106
590.85712	45.156956
591.71429	49.389801
592.57141	52.712391
593.42859	43.474506
594.28571	46.197689
595.14288	45.56741
596	43.507774
596.85712	46.802963
597.71429	40.360016
598.57141	38.994526
599.42859	43.510029
600.28571	47.675755
601.14288	43.575226
602	40.469326
602.85712	38.826756
603.71429	43.899845
604.57141	46
605.42859	41.591652
606.28571	43.103046
607.14288	36.635921
608	35
608.85712	36.809155
609.71429	38.891193
610.57141	34.055584
611.42859	35.097378
612.28571	38.760487
613.14288	46.921886
614	39.163212
614.85712	40.820316
615.71429	45.245705
616.57141	45.187595
617.42859	39.374588
618.28571	44.854561
619.14288	40.44281
620	39.3535
620.85712	42
621.71429	42.560032
622.57141	43
623.42859	39.751186
624.28571	33.831417
625.14288	34.225082
626	47.601227
626.85712	47.668541
627.71429	36.460625
628.57141	43.314133
629.42859	35.275536
630.28571	41.877373
631.14288	35.570152
632	43.34481
632.85712	38
633.71429	35.758736
634.57141	31.999453
635.42859	45.812126
636.28571	46.105896
637.14288	47.692574
638	40.560738
638.85712	43.41132
639.71429	45.929165
640.57141	46.166897
641.42859	40.695339
642.28571	39.037651
643.14288	46.544743
644	46.670982
644.85712	42.702759
645.71429	37.630344
646.57141	45.31649
647.42859	48.915802
648.28571	49.889107
649.14288	44.929783
650	44.120762
