50	19.851616
50.857143	22.718069
51.714287	23.675982
52.57143	24.633141
53.42857	27.364084
54.285713	32.849102
55.142857	35.492405
56	37.327198
56.857143	41.270607
57.714287	45.288128
58.57143	46.956135
59.42857	46.300201
60.285713	53.741138
61.142857	54.949726
62	64.644142
62.857143	76.457291
63.714287	73
64.571426	73.533226
65.428574	82.973373
66.285713	81.053215
67.14286	87.534897
68	93.35006
68.85714	89.741196
69.714287	97.934166
70.571426	93.81826
71.428574	89.800026
72.285713	102.88036
73.14286	105.07118
74	103
74.85714	96.109146
75.714287	87.788307
76.571426	85.992828
77.428574	94.779877
78.285713	101.48627
79.14286	96.098244
80	91.974495
80.85714	91.213646
81.714287	93.469864
82.571426	91.773178
83.428574	88.919754
84.285713	83.059669
85.14286	97.930046
86	82.925262
86.85714	93.882118
87.714287	91.001572
88.571426	91.963936
89.428574	92
90.285713	100.01976
91.14286	95.876114
92	88.46637
92.85714	91.677078
93.714287	87.060722
94.571426	87.828362
95.428574	86.316513
96.285713	86.268066
97.14286	86.402718
98	84.314087
98.85714	81.420654
99.714287	80.489967
100.57143	84.182625
101.42857	84.223038
102.28571	79.384369
103.14286	82.098274
104	85.686333
104.85714	83.608101
105.71429	80.488487
106.57143	82.835854
107.42857	84.598625
108.28571	78.979362
109.14286	84.04187
110	75.85759
110.85714	74.533363
111.71429	88.008575
112.57143	90.910057
113.42857	86.324883
114.28571	83.293381
115.14286	91.675491
116	93.834755
116.85714	89.988205
117.71429	83.622559
118.57143	85.677147
119.42857	87.703308
120.28571	87.330345
121.14286	87
122	80.949455
122.85714	78.715729
123.71429	86.470352
124.57143	90.984802
125.42857	90.476089
126.28571	93.218063
127.14286	92.712418
128	92.176758
128.85715	99
129.71428	101.53996
130.57143	103.8558
131.42857	94.480545
132.28572	91.779533
133.14285	99.533836
134	105.51663
134.85715	104.95879
135.71428	116.19714
136.57143	100.34899
137.42857	105.03954
138.28572	105.86883
139.14285	92.289986
140	117.63114
140.85715	114.40301
141.71428	129.1228
142.57143	106.92376
143.42857	122.92542
144.28572	125.39864
145.14285	121.91509
146	128.41862
146.85715	136.70062
147.71428	128.0658
148.57143	110.53847
149.42857	106.51077
150.28572	99.617271
151.14285	99.699333
152	107.24713
152.85715	108.45869
153.71428	108.94549
154.57143	106.42104
155.42857	104.00658
156.28572	101.1629
157.14285	105.26576
158	121.70675
158.85715	115.66254
159.71428	134.33626
160.57143	137.07533
161.42857	132.58041
162.28572	140.38139
163.14285	131.63167
164	152.94897
164.85715	160.65576
165.71428	178.31717
166.57143	181.64513
167.42857	189.80278
168.28572	204
169.14285	204.03633
170	222.52605
170.85715	232.50571
171.71428	254.30322
172.57143	255.10019
173.42857	267.25571
174.28572	257.10989
175.14285	259.12476
176	236.02586
176.85715	237.74843
177.71428	221.22153
178.57143	209.9196
179.42857	193.96844
180.28572	164.26549
181.14285	144.5083
182	133.07979
182.85715	133.24156
183.71428	138.91428
184.57143	133.18068
185.42857	130.20738
186.28572	137.60571
187.14285	147.86824
188	155.3958
188.85715	154.7928
189.71428	157.86584
190.57143	161.6371
191.42857	154.25128
192.28572	153.35217
193.14285	147.06834
194	133
194.85715	130.71617
195.71428	126.57166
196.57143	127.63709
197.42857	115.03295
198.28572	107.01493
199.14285	104.75558
200	112.38329
200.85715	109.93036
201.71428	114.8829
202.57143	107.18081
203.42857	119.07203
204.28572	119.02906
205.14285	100.90919
206	98.171387
206.85715	115.79973
207.71428	114.06334
208.57143	106.41721
209.42857	101.36257
210.28572	111.00319
211.14285	110.22119
212	110
212.85715	107.45216
213.71428	111.98823
214.57143	105.69254
215.42857	97.66243
216.28572	99.862694
217.14285	110.05756
218	99.017616
218.85715	98.29924
219.71428	98.602127
220.57143	102.76321
221.42857	104.33865
222.28572	105.28777
223.14285	112.88391
224	120.65063
224.85715	127.72507
225.71428	149.34726
226.57143	155.77446
227.42857	157.54083
228.28572	173.38445
229.14285	172.92293
230	165.46184
230.85715	156.65347
231.71428	143.18584
232.57143	140.56334
233.42857	133.27699
234.28572	123.59659
235.14285	111.74458
236	95.116043
236.85715	100.55394
237.71428	104.27695
238.57143	101.9221
239.42857	105.84252
240.28572	105.98898
241.14285	112.4236
242	96.154701
242.85715	94.957985
243.71428	106.06799
244.57143	102.78129
245.42857	98.327583
246.28572	87.759911
247.14285	102.26018
248	95.600563
248.85715	103.12261
249.71428	98.264977
250.57143	98.811623
251.42857	90.105286
252.28572	91.732773
253.14285	98.315735
254	90.752808
254.85715	101.90092
255.71428	100.10935
256.57144	103.11714
257.42856	108.04211
258.28571	111.99078
259.14285	105.10526
260	125.46799
260.85715	117.34048
261.71429	111.30172
262.57144	113.81198
263.42856	119.55044
264.28571	118.17428
265.14285	118.90079
266	119.88877
266.85715	106.81546
267.71429	116.27692
268.57144	115.43283
269.42856	105.71501
270.28571	120.65061
271.14285	117.41546
272	111.93929
272.85715	112.60172
273.71429	114.57934
274.57144	114.21952
275.42856	117.08004
276.28571	113.44541
277.14285	112.75008
278	107.82013
278.85715	119.15991
279.71429	115.34537
280.57144	127.63683
281.42856	121.36198
282.28571	121.54045
283.14285	124.68402
284	135.12076
284.85715	124.6743
285.71429	130.80194
286.57144	136.70198
287.42856	141.76122
288.28571	145
289.14285	154.37352
290	160
290.85715	172.16982
291.71429	189.60281
292.57144	192.44533
293.42856	210.50179
294.28571	233.66675
295.14285	242.28111
296	231.59473
296.85715	215.32533
297.71429	203.41263
298.57144	193.11459
299.42856	176.11705
300.28571	152.25938
301.14285	148.33234
302	148.79819
302.85715	149.64519
303.71429	151.95515
304.57144	163.50401
305.42856	176.03156
306.28571	169.58214
307.14285	170.81821
308	186.48766
308.85715	197.52831
309.71429	200.73422
310.57144	208.23364
311.42856	222.05865
312.28571	228.11674
313.14285	236.23245
314	259.87909
314.85715	276.54041
315.71429	298.26309
316.57144	331.82828
317.42856	370.10605
318.28571	391.59134
319.14285	414.84378
320	427.41733
320.85715	432.96326
321.71429	452.70905
322.57144	464.09042
323.42856	446.72861
324.28571	429.5672
325.14285	413.22025
326	395.48291
326.85715	385.57401
327.71429	378.59238
328.57144	362.05453
329.42856	356.29596
330.28571	352
331.14285	349.31619
332	363.28229
332.85715	391.48248
333.71429	402.62814
334.57144	437.07141
335.42856	458.50635
336.28571	477.85382
337.14285	518.32428
338	547.20831
338.85715	587.42883
339.71429	650.60303
340.57144	703.16864
341.42856	747.17065
342.28571	804.02197
343.14285	897.46027
344	969.60236
344.85715	1074.2988
345.71429	1190.941
346.57144	1326.249
347.42856	1468.882
348.28571	1581.6115
349.14285	1699.0165
350	1813.8008
350.85715	1825.8422
351.71429	1828.0842
352.57144	1809.8848
353.42856	1720.7781
354.28571	1593.3008
355.14285	1401.4258
356	1190.7085
356.85715	972.47974
357.71429	757.12061
358.57144	565.99225
359.42856	429.62579
360.28571	339.64682
361.14285	287.89932
362	250.45949
362.85715	223.55759
363.71429	199.17192
364.57144	182.18388
365.42856	168.97244
366.28571	159.88704
367.14285	157.42632
368	154.129
368.85715	137.28163
369.71429	126.38023
370.57144	128.463
371.42856	129.35577
372.28571	129.24104
373.14285	117.81523
374	113.08114
374.85715	121.30223
375.71429	129.17357
376.57144	122.19342
377.42856	114.15469
378.28571	117.76951
379.14285	121.57369
380	118.49448
380.85715	116.47646
381.71429	106.38724
382.57144	108.24527
383.42856	119.65401
384.28571	114.03076
385.14285	105.46542
386	99.043793
386.85715	90.168587
387.71429	91.437279
388.57144	103.42695
389.42856	99.752075
390.28571	98.919594
391.14285	105.75314
392	96.939194
392.85715	88.803329
393.71429	90.425728
394.57144	85.228432
395.42856	94.090027
396.28571	104.52705
397.14285	104.72067
398	99.461708
398.85715	91.749199
399.71429	88.334747
400.57144	92.725479
401.42856	94.316689
402.28571	101.6183
403.14285	100.78403
404	89.755356
404.85715	107.62155
405.71429	110.15108
406.57144	105.78064
407.42856	107.2492
408.28571	108.7604
409.14285	119.0251
410	119.65398
410.85715	145.10468
411.71429	164.02365
412.57144	193.81949
413.42856	218.12703
414.28571	259.58762
415.14285	292.40128
416	308.15683
416.85715	311.73965
417.71429	313.76312
418.57144	288.98602
419.42856	256.12732
420.28571	211.7253
421.14285	157.81729
422	143.64372
422.85715	121.06356
423.71429	98.745514
424.57144	105.82862
425.42856	95.097328
426.28571	87.049408
427.14285	99.487717
428	69.500366
428.85715	85.955246
429.71429	84.537758
430.57144	77.850922
431.42856	88.579407
432.28571	83.902328
433.14285	81.753952
434	72.760666
434.85715	78.421066
435.71429	80.845581
436.57144	79.489204
437.42856	77.368332
438.28571	77.21257
439.14285	72.36097
440	81
440.85715	83.455025
441.71429	87.362053
442.57144	77.274963
443.42856	77.708717
444.28571	76.693344
445.14285	76.969246
446	75.61277
446.85715	73.618492
447.71429	80.515259
448.57144	76.836555
449.42856	78.636124
450.28571	79.36026
451.14285	82.210625
452	86.261497
452.85715	77.944206
453.71429	72.154373
454.57144	76.159286
455.42856	87.524307
456.28571	81.500923
457.14285	76
458	81.787437
458.85715	86.596031
459.71429	84.544479
460.57144	74.140694
461.42856	76.170059
462.28571	80
463.14285	80.687675
464	77.465096
464.85715	78.905487
465.71429	85.966927
466.57144	79.579803
467.42856	79.355492
468.28571	80
469.14285	80
470	84.223793
470.85715	85.864822
471.71429	93.964973
472.57144	83.231712
473.42856	101.43728
474.28571	95.431793
475.14285	95.966591
476	100.93607
476.85715	94.095512
477.71429	105.62582
478.57144	93.596626
479.42856	105
480.28571	104.44752
481.14285	99
482	99.684059
482.85715	103.6836
483.71429	101.46087
484.57144	99
485.42856	101.47961
486.28571	105.05608
487.14285	96.473846
488	112.82593
488.85715	105.2662
489.71429	98.724266
490.57144	105.63757
491.42856	104.61521
492.28571	103.59175
493.14285	102.56776
494	104.28001
494.85715	105.55981
495.71429	104.50414
496.57144	106.05658
497.42856	104.78937
498.28571	97.231171
499.14285	108.03934
500	107.36052
500.85715	106.85776
501.71429	105.27342
502.57144	107.20314
503.42856	111.18017
504.28571	123.26788
505.14285	120.00718
506	109.16167
506.85715	112.79633
507.71429	122.54292
508.57144	149.55096
509.42856	151.18408
510.28571	156.59589
511.14285	178.11046
512	178.01331
512.85712	212.4612
513.71429	248.19106
514.57141	333.03488
515.42859	432.64438
516.28571	601.83893
517.14288	845.84412
518	1121.3536
518.85712	1257.1565
519.71429	1167.0183
520.57141	935.39087
521.42859	691.93109
522.28571	470.51147
523.14288	341.76279
524	274.1286
524.85712	245.83261
525.71429	215.13589
526.57141	196.02753
527.42859	173.04109
528.28571	161.14397
529.14288	157.47827
530	144.11189
530.85712	128.5687
531.71429	134.65805
532.57141	136.99706
533.42859	127.63361
534.28571	129.10052
535.14288	115.0592
536	117.88947
536.85712	107.71581
537.71429	105.8511
538.57141	109.52651
539.42859	101.79311
540.28571	106.66694
541.14288	109.9253
542	112.91494
542.85712	98.11615
543.71429	99.955917
544.57141	86.616371
545.42859	92.804001
546.28571	95.660095
547.14288	84.397568
548	85.304237
548.85712	86.430656
549.71429	92.137489
550.57141	79.046509
551.42859	72.8134
552.28571	72.441742
553.14288	68.289108
554	70
554.85712	68.015175
555.71429	66
556.57141	67.128319
557.42859	62.618702
558.28571	58.367146
559.14288	59.335739
560	62.103767
560.85712	60.792736
561.71429	57.686928
562.57141	59.419235
563.42859	59.158043
564.28571	66.878624
565.14288	68.910812
566	61.427151
566.85712	67.877373
567.71429	70.129082
568.57141	76.181694
569.42859	62.362988
570.28571	67.651237
571.14288	77.202805
572	73.196709
572.85712	93.054398
573.71429	93.55011
574.57141	101.76047
575.42859	102.81406
576.28571	111.53484
577.14288	109.79229
578	114.98981
578.85712	121.05078
579.71429	114.53497
580.57141	121.2967
581.42859	130.26971
582.28571	136.88571
583.14288	133.50349
584	135.35403
584.85712	125.54599
585.71429	115.57098
586.57141	114.84221
587.42859	95.630371
588.28571	93.918762
589.14288	73.848938
590	66.012894
590.85712	57.70631
591.71429	73.986519
592.57141	62.117054
593.42859	62.050987
594.28571	57
595.14288	57.955055
596	59.328152
596.85712	56.598522
597.71429	61.440067
598.57141	65.604378
599.42859	60.048203
600.28571	55.324245
601.14288	57.849552
602	56.132668
602.85712	58.826756
603.71429	56.75013
604.57141	52.924397
605.42859	63.020874
606.28571	50.709
607.14288	47.636463
608	46.27734
608.85712	59.568665
609.71429	55.326416
610.57141	54.011116
611.42859	49.194756
612.28571	55.380241
613.14288	58.802094
614	51.468914
614.85712	58.58984
615.71429	56.252571
616.57141	56.932625
617.42859	61.637791
618.28571	58.527252
619.14288	58.016609
620	55.412098
620.85712	57
621.71429	60.360191
622.57141	61.790272
623.42859	64.898575
624.28571	61.441895
625.14288	54.549835
626	52.212418
626.85712	54.498596
627.71429	58.513126
628.57141	52.533455
629.42859	48.122459
630.28571	58.017517
631.14288	58.873299
632	57.54599
632.85712	60.133045
633.71429	51.630009
634.57141	58.749916
635.42859	57.436382
636.28571	51.415699
637.14288	53.650494
638	53.514103
638.85712	60.923988
639.71429	65.070831
640.57141	61.915859
641.42859	64.674194
642.28571	66.641563
643.14288	62.364029
644	56.341965
644.85712	51.702759
645.71429	65.856827
646.57141	64.30378
647.42859	60.112267
648.28571	58.088715
649.14288	62.210651
650	64.637718
