52.6382	1902
53.8664	2272
55.0966	2700
56.3244	3140
57.5542	3482
58.7839	3708
60.0113	3812
61.2385	3758
62.4677	3808
63.6946	3730
64.9234	3678
66.15	3590
67.3764	3664
68.6026	3540
69.8308	3650
71.0568	3656
72.2825	3576
73.5081	3692
74.7336	3594
75.961	3596
77.1861	3532
78.411	3420
79.6358	3486
80.8605	3454
82.0849	3384
83.3093	3402
84.5334	3328
85.7574	3328
86.9791	3262
88.2028	3292
89.4263	3248
90.6497	3270
91.8728	3206
93.0937	3164
94.3166	3238
95.5393	3080
96.7598	3094
97.9822	3132
99.2044	3124
100.424	3010
101.646	3060
102.866	3034
104.087	3098
105.307	3170
106.528	3062
107.747	3108
108.968	3066
110.187	3076
111.405	3080
112.624	2986
113.844	3050
115.062	3074
116.28	3036
117.497	3138
118.717	3120
119.935	3154
121.152	3098
122.369	3060
123.586	3046
124.803	3098
126.019	3082
127.236	3088
128.452	3178
129.668	3134
130.884	3220
132.1	3218
133.313	3214
134.529	3274
135.744	3288
136.959	3280
138.174	3340
139.387	3414
140.602	3558
141.816	3644
143.029	3694
144.243	3848
145.455	3754
146.669	3914
147.88	4004
149.094	3862
150.305	3948
151.519	3850
152.73	3856
153.94	3788
155.153	3720
156.364	3756
157.574	3782
158.786	3978
159.997	4058
161.206	4074
162.416	4374
163.626	4518
164.835	4736
166.047	4994
167.256	5398
168.465	5742
169.673	5922
170.882	6430
172.091	6744
173.299	7010
174.505	7148
175.713	7184
176.921	7128
178.129	6892
179.336	6652
180.541	6230
181.749	5894
182.956	5546
184.163	5188
185.367	5088
186.574	4996
187.778	4956
188.985	4926
190.189	4864
191.395	5010
192.598	4936
193.804	4802
195.007	4692
196.213	4604
197.416	4414
198.619	4290
199.824	4194
201.026	4090
202.229	4150
203.431	3966
204.635	3880
205.837	3930
207.039	3868
208.241	3930
209.442	3930
210.644	3950
211.845	3978
213.046	3998
214.247	4074
215.448	3966
216.648	3940
217.849	3924
219.049	4008
220.247	4080
221.447	3984
222.647	4070
223.847	4242
225.044	4510
226.243	4642
227.443	4776
228.64	4880
229.838	4940
231.037	4936
232.234	4820
233.432	4768
234.628	4464
235.826	4368
237.022	4078
238.218	4030
239.416	3902
240.611	3802
241.806	3666
243.004	3636
244.199	3558
245.393	3546
246.588	3494
247.782	3554
248.979	3478
250.173	3388
251.367	3548
252.561	3420
253.755	3546
254.948	3592
256.142	3576
257.335	3602
258.528	3660
259.719	3722
260.912	3794
262.104	3870
263.297	3942
264.489	4030
265.679	4002
266.871	4006
268.063	4012
269.253	4096
270.444	4028
271.636	3948
272.825	3916
274.016	4048
275.205	4038
276.396	4014
277.584	4058
278.775	4056
279.963	4150
281.151	4218
282.341	4346
283.529	4316
284.717	4432
285.904	4528
287.093	4682
288.281	4820
289.468	5092
290.655	5354
291.841	5664
293.028	6194
294.214	6496
295.401	6772
296.587	6974
297.773	6918
298.958	6962
300.144	6798
301.33	6318
302.515	6078
303.698	5868
304.883	5622
306.068	5550
307.253	5562
308.435	5810
309.62	5900
310.804	6168
311.986	6386
313.17	6688
314.352	7188
315.536	7662
316.717	8346
317.9	9074
319.082	9660
320.263	10410
321.445	11132
322.626	11628
323.807	12230
324.989	12294
326.169	12438
327.35	12228
328.529	11832
329.709	11632
330.891	11410
332.07	11330
333.25	11490
334.429	11714
335.608	12206
336.787	12774
337.966	13860
339.144	15050
340.321	16522
341.499	18242
342.677	20152
343.855	22350
345.033	25436
346.208	28556
347.386	32324
348.563	36092
349.739	39472
350.916	42236
352.093	44650
353.267	45748
354.444	45232
355.618	42896
356.795	39372
357.969	34608
359.143	29402
360.319	24252
361.492	19448
362.666	14992
363.841	11574
365.014	9012
366.187	7634
367.36	6772
368.535	6132
369.708	5652
370.88	5308
372.053	5110
373.225	4930
374.397	4868
375.569	4632
376.74	4652
377.912	4590
379.083	4544
380.255	4404
381.424	4542
382.595	4352
383.766	4352
384.936	4276
386.105	4222
387.275	4148
388.445	4098
389.613	4064
390.783	3926
391.951	3992
393.121	3916
394.29	3966
395.457	3984
396.624	3948
397.793	4070
398.96	4130
400.129	4116
401.296	4128
402.462	4316
403.628	4392
404.796	4502
405.962	4602
407.128	4712
408.294	4788
409.459	5060
410.625	5230
411.79	5490
412.955	6058
414.12	6360
415.285	6734
416.449	6938
417.614	6930
418.778	6780
419.942	6482
421.106	6144
422.268	5478
423.432	4862
424.595	4466
425.757	4064
426.92	3898
428.083	3780
429.244	3620
430.407	3512
431.567	3604
432.73	3586
433.89	3608
435.053	3534
436.213	3444
437.372	3426
438.534	3432
439.694	3386
440.853	3410
442.015	3392
443.174	3414
444.333	3380
445.492	3362
446.651	3320
447.809	3370
448.968	3260
450.126	3322
451.284	3316
452.442	3354
453.6	3284
454.758	3226
455.915	3290
457.073	3328
458.23	3236
459.387	3358
460.542	3308
461.699	3348
462.855	3362
464.01	3462
465.166	3458
466.323	3422
467.477	3582
468.633	3566
469.786	3660
470.942	3664
472.095	3672
473.249	3768
474.404	3838
475.557	3968
476.71	3924
477.865	4066
479.017	4128
480.17	4168
481.322	4122
482.476	4174
483.628	4236
484.78	4296
485.932	4286
487.083	4286
488.235	4268
489.386	4288
490.537	4288
491.688	4422
492.839	4308
493.988	4386
495.138	4400
496.289	4456
497.439	4536
498.587	4504
499.737	4532
500.887	4598
502.035	4652
503.184	4712
504.334	4870
505.481	5086
506.63	5330
507.777	5950
508.924	6494
510.073	7604
511.219	9234
512.367	12478
513.514	17260
514.66	25154
515.806	34186
516.953	42600
518.099	48330
519.245	52110
520.39	53136
521.535	51832
522.68	48604
523.825	41998
524.97	33134
526.115	24212
527.259	17320
528.404	12674
529.548	10068
530.692	8474
531.834	7422
532.977	6634
534.121	6028
535.265	5628
536.406	5402
537.549	5066
538.692	4852
539.833	4744
540.976	4608
542.116	4428
543.259	4362
544.399	4188
545.539	4188
546.681	4016
547.821	3910
548.963	3856
