50	7.2979484
50.857143	9.6393566
51.714287	11
52.57143	9.2758875
53.42857	9.5965719
54.285713	11.979838
55.142857	11.204569
56	11.441451
56.857143	14.270802
57.714287	11.704803
58.57143	10.129643
59.42857	12.519869
60.285713	11.798124
61.142857	14.8413
62	14.232643
62.857143	15.695811
63.714287	12
64.571426	12
65.428574	14.860415
66.285713	13.173117
67.14286	15.620833
68	15.166134
68.85714	20.559458
69.714287	20.490713
70.571426	20.713453
71.428574	18.306505
72.285713	19.536282
73.14286	21.594852
74	16.998493
74.85714	17.650116
75.714287	24.388638
76.571426	24.366808
77.428574	23.000435
78.285713	22.386065
79.14286	17.936754
80	22.568563
80.85714	24.491718
81.714287	24.754889
82.571426	19.661467
83.428574	18.524431
84.285713	22.372143
85.14286	25.834867
86	23.085732
86.85714	27.89669
87.714287	19.50506
88.571426	20.812784
89.428574	15.786912
90.285713	21.651178
91.14286	19.823889
92	24.297256
92.85714	23.114824
93.714287	22.684862
94.571426	23
95.428574	19.945385
96.285713	21.452795
97.14286	20.761597
98	19.509209
98.85714	19.129534
99.714287	17
100.57143	18.584072
101.42857	22.081726
102.28571	22.696445
103.14286	19.130722
104	15.728375
104.85714	14.201555
105.71429	22.738928
106.57143	25.698175
107.42857	23.422512
108.28571	19.24604
109.14286	21.906765
110	20
110.85714	20
111.71429	25.671
112.57143	15.988483
113.42857	21.140221
114.28571	20.315016
115.14286	13.523653
116	18.216494
116.85714	18.514233
117.71429	20.839846
118.57143	18.619398
119.42857	22.788927
120.28571	23.555298
121.14286	23.733507
122	24.45504
122.85714	21.434067
123.71429	20.92601
124.57143	20.307034
125.42857	16.584005
126.28571	18.307467
127.14286	21.293497
128	19.677986
128.85715	21.321297
129.71428	24.683399
130.57143	18.226433
131.42857	19.195547
132.28572	20
133.14285	20.26808
134	21.482849
134.85715	17.145803
135.71428	19.042353
136.57143	20
137.42857	20
138.28572	21.898539
139.14285	17.404011
140	22.335251
140.85715	25.5779
141.71428	23.511538
142.57143	23.799772
143.42857	23.229872
144.28572	20.030523
145.14285	18.286463
146	20.736664
146.85715	24.619555
147.71428	24.748604
148.57143	23.403402
149.42857	24.702763
150.28572	27.615999
151.14285	28.488937
152	30.417484
152.85715	29.361238
153.71428	24.573717
154.57143	24.797539
155.42857	23.397228
156.28572	20.374088
157.14285	22.684683
158	23.72736
158.85715	26.16902
159.71428	22.635462
160.57143	26.96858
161.42857	22.458714
162.28572	20.61104
163.14285	23.498093
164	20.700651
164.85715	26.781414
165.71428	24.04777
166.57143	24.917625
167.42857	21.016741
168.28572	21.968782
169.14285	19.167715
170	20.834734
170.85715	20.107264
171.71428	17.401062
172.57143	26.259157
173.42857	22.290754
174.28572	24.164366
175.14285	24.234728
176	23.259178
176.85715	23.71702
177.71428	24
178.57143	24
179.42857	22.712515
180.28572	25.094076
181.14285	25.810905
182	26.142572
182.85715	25.906414
183.71428	23.432144
184.57143	23.99852
185.42857	24.569826
186.28572	25.264114
187.14285	28.428789
188	29
188.85715	27.849155
189.71428	24.916525
190.57143	23.338791
191.42857	23.368481
192.28572	22.875792
193.14285	24.190477
194	22.495676
194.85715	24.903728
195.71428	27.591782
196.57143	25.08814
197.42857	22.125124
198.28572	26.886572
199.14285	20.588612
200	24.710953
200.85715	22.75062
201.71428	31.407381
202.57143	21
203.42857	20.976471
204.28572	19.018312
205.14285	27.730225
206	27.050711
206.85715	20.483856
207.71428	25.46295
208.57143	24.21995
209.42857	21.391031
210.28572	24.397493
211.14285	25
212	24.188974
212.85715	23.208534
213.71428	29.172281
214.57143	31.751699
215.42857	26.130222
216.28572	24.714714
217.14285	24.304848
218	27.386536
218.85715	25.706486
219.71428	22.081768
220.57143	22.243423
221.42857	22.396484
222.28572	22
223.14285	23.133862
224	26.196548
224.85715	28.531675
225.71428	26.94343
226.57143	24.503227
227.42857	23.520489
228.28572	23.462234
229.14285	24.890469
230	26.856121
230.85715	25.120703
231.71428	20.211498
232.57143	22.022205
233.42857	25.917587
234.28572	23.309141
235.14285	21.01194
236	18.374928
236.85715	19.081987
237.71428	23.154823
238.57143	20.734936
239.42857	20.750696
240.28572	23
241.14285	23.218426
242	22.980673
242.85715	19.189404
243.71428	20.174603
244.57143	22.266521
245.42857	28.711748
246.28572	26.479916
247.14285	22.071968
248	15.510438
248.85715	19.471729
249.71428	14.288424
250.57143	18.292231
251.42857	22.640894
252.28572	15.157083
253.14285	20.072187
254	23.990475
254.85715	22.01687
255.71428	24.935411
256.57144	20.172607
257.42856	20
258.28571	20
259.14285	20
260	20
260.85715	23.607204
261.71429	18.663946
262.57144	16.246096
263.42856	16
264.28571	19.419598
265.14285	25.899698
266	20.353575
266.85715	19
267.71429	16.578764
268.57144	21.58095
269.42856	22.213869
270.28571	21.225431
271.14285	20.2369
272	20
272.85715	20
273.71429	18.536577
274.57144	18
275.42856	18
276.28571	16.597734
277.14285	18.070955
278	25.812399
278.85715	22.957645
279.71429	19.337578
280.57144	20.958387
281.42856	23.287968
282.28571	22.096272
283.14285	22.248835
284	26.079084
284.85715	23.752739
285.71429	20.401697
286.57144	23.545303
287.42856	27.16431
288.28571	24.556444
289.14285	24.827129
290	27
290.85715	25.901913
291.71429	25.541101
292.57144	26
293.42856	22.841652
294.28571	20
295.14285	21.024319
296	19.47731
296.85715	20.479303
297.71429	22.036686
298.57144	20.484699
299.42856	21.477528
300.28571	20.589046
301.14285	19.464468
302	21.834902
302.85715	23.093893
303.71429	23.339176
304.57144	23.681271
305.42856	21.565798
306.28571	23.144567
307.14285	20.915461
308	19.441803
308.85715	24.518471
309.71429	24.269384
310.57144	26.98082
311.42856	25.197332
312.28571	23.844351
313.14285	19
314	22.083361
314.85715	25.47576
315.71429	23.753584
316.57144	24.627392
317.42856	23.262968
318.28571	21.270987
319.14285	20.360603
320	21.713587
320.85715	22.29216
321.71429	21
322.57144	21
323.42856	22.034651
324.28571	22.633871
325.14285	21.356323
326	25.012539
326.85715	25.327782
327.71429	23.988741
328.57144	25.035662
329.42856	19.656406
330.28571	21.650997
331.14285	22.352659
332	22.291105
332.85715	23.71858
333.71429	21
334.57144	22.909193
335.42856	25.732742
336.28571	23.949192
337.14285	26.630396
338	25.795015
338.85715	21.627995
339.71429	23.313967
340.57144	22.43442
341.42856	22.132763
342.28571	27.12417
343.14285	23.625982
344	25.625011
344.85715	26.373905
345.71429	25
346.57144	24.371489
347.42856	24.890467
348.28571	24.588953
349.14285	18.485096
350	25.364143
350.85715	25.591087
351.71429	28.35951
352.57144	27.644758
353.42856	29.647648
354.28571	27.755037
355.14285	22.634586
356	25.670567
356.85715	25.993656
357.71429	26.670883
358.57144	24.335083
359.42856	25.675917
360.28571	28.022755
361.14285	28.280073
362	25.347149
362.85715	24.598419
363.71429	25.891111
364.57144	31.928469
365.42856	29.278555
366.28571	29.453836
367.14285	33.099583
368	33.140663
368.85715	32.630493
369.71429	34.721352
370.57144	32.919319
371.42856	37.164169
372.28571	37.823021
373.14285	39.173695
374	40.790642
374.85715	36.405727
375.71429	43.566216
376.57144	49.25473
377.42856	56.249634
378.28571	65.735512
379.14285	63.35009
380	80.893875
380.85715	100.79288
381.71429	125.16177
382.57144	143.64665
383.42856	151.69955
384.28571	148.95979
385.14285	134.34953
386	100.97387
386.85715	70.065445
387.71429	57.074451
388.57144	40.957367
389.42856	35
390.28571	32.414001
391.14285	34.722431
392	32.610699
392.85715	27
393.71429	31.384384
394.57144	32.220745
395.42856	33.948139
396.28571	35.856033
397.14285	39.062744
398	41.411499
398.85715	44.582783
399.71429	47.606861
400.57144	51.691048
401.42856	57.744884
402.28571	70.780914
403.14285	92.425041
404	124.47358
404.85715	166.14284
405.71429	215.22543
406.57144	293.26828
407.42856	357.25803
408.28571	377.91394
409.14285	356.47916
410	285.6423
410.85715	207.09041
411.71429	148.35457
412.57144	101.05569
413.42856	75.454437
414.28571	61.677151
415.14285	53.481853
416	51.202122
416.85715	41.292042
417.71429	39
418.57144	41.49754
419.42856	35.24469
420.28571	39.138371
421.14285	33.052139
422	34.641945
422.85715	30.535397
423.71429	32.715912
424.57144	28.40007
425.42856	30.798243
426.28571	28.163822
427.14285	28
428	29.941952
428.85715	29.016085
429.71429	29
430.57144	26.037521
431.42856	28.974293
432.28571	28
433.14285	28.210276
434	32
434.85715	31.672155
435.71429	27.904356
436.57144	27.329115
437.42856	30.125759
438.28571	32.117889
439.14285	37.920807
440	33.533676
440.85715	40.074474
441.71429	36.201454
442.57144	36.783585
443.42856	36.23288
444.28571	37.24752
445.14285	40.365971
446	47
446.85715	46.704838
447.71429	47.25061
448.57144	47.035011
449.42856	42.036442
450.28571	41.825802
451.14285	42.165623
452	45.438812
452.85715	42.886066
453.71429	47.860893
454.57144	43.628796
455.42856	37.464611
456.28571	40.898376
457.14285	42.495243
458	44.632618
458.85715	44.780952
459.71429	35.891342
460.57144	33.297012
461.42856	35.591827
462.28571	39.049717
463.14285	36.596004
464	28.164034
464.85715	31.01067
465.71429	31.937944
466.57144	33.120781
467.42856	28.926121
468.28571	28.487921
469.14285	32.055344
470	32.216213
470.85715	26.373104
471.71429	32.4161
472.57144	24.713108
473.42856	26.458483
474.28571	20.804571
475.14285	21.811218
476	22.928499
476.85715	22.050589
477.71429	22.970228
478.57144	28.946939
479.42856	21.0366
480.28571	24.033319
481.14285	24.672096
482	18.921738
482.85715	18.597904
483.71429	23.394236
484.57144	18.857237
485.42856	18.824261
486.28571	22.434029
487.14285	20
488	18.834511
488.85715	17.313377
489.71429	21.766237
490.57144	18.115482
491.42856	22.673744
492.28571	21.300871
493.14285	20.373709
494	20.207287
494.85715	19.420128
495.71429	22.221914
496.57144	23.12615
497.42856	18.043259
498.28571	17.585896
499.14285	19.458439
500	19.566263
500.85715	21.776527
501.71429	23.616686
502.57144	24
503.42856	24.666433
504.28571	20.848555
505.14285	21.154871
506	24.228907
506.85715	23.462151
507.71429	20.613153
508.57144	21.644785
509.42856	25.388805
510.28571	27.747593
511.14285	28
512	29.856068
512.85712	29.047029
513.71429	31.940727
514.57141	40.015274
515.42859	42.282036
516.28571	50.754528
517.14288	65.261017
518	101.67152
518.85712	135.13255
519.71429	178.05075
520.57141	206.19626
521.42859	177.51923
522.28571	147.19273
523.14288	99.885757
524	61.668575
524.85712	47.255688
525.71429	42.74675
526.57141	41.184734
527.42859	33.551373
528.28571	32.220306
529.14288	31.597517
530	24.40818
530.85712	25.285864
531.71429	27.421562
532.57141	26.391073
533.42859	26
534.28571	26
535.14288	24.600611
536	25.460558
536.85712	22.958923
537.71429	22.790298
538.57141	23
539.42859	20.440439
540.28571	18.232983
541.14288	21.664774
542	21.053051
542.85712	22.960051
543.71429	16.010813
544.57141	17.617025
545.42859	30.549902
546.28571	24.681116
547.14288	21.860432
548	21.51371
548.85712	22.974558
549.71429	19.238482
550.57141	20.270645
551.42859	21.608065
552.28571	23.336542
553.14288	22.516417
554	21.617308
554.85712	23.125164
555.71429	22.472036
556.57141	23.505503
557.42859	23.460884
558.28571	24.148092
559.14288	21.354538
560	25.417103
560.85712	27.646147
561.71429	24.151005
562.57141	25.990597
563.42859	19.968946
564.28571	26.9788
565.14288	19.628496
566	22.438738
566.85712	29.465338
567.71429	20.403584
568.57141	22.987024
569.42859	29.649488
570.28571	19.204611
571.14288	22.209116
572	24.423149
572.85712	27.355162
573.71429	28.357092
574.57141	26.753128
575.42859	26.984819
576.28571	22
577.14288	23.085737
578	21.408319
578.85712	19.054558
579.71429	24.424677
580.57141	30.108967
581.42859	29.590809
582.28571	24.822401
583.14288	28.385944
584	29.001907
584.85712	25.180925
585.71429	28.456953
586.57141	22.171059
587.42859	24.929607
588.28571	26.85997
589.14288	29.701725
590	21.545719
590.85712	25.889992
591.71429	22.191542
592.57141	31.651421
593.42859	26.596094
594.28571	30.751514
595.14288	25.51911
596	34.583683
596.85712	27.565176
597.71429	31.397945
598.57141	27.604292
599.42859	26.062374
600.28571	28.031862
601.14288	27.254574
602	29.477821
602.85712	28
603.71429	22.68878
604.57141	22.797449
605.42859	23.65188
606.28571	25.14867
607.14288	22.962965
608	22.802414
608.85712	18.78232
609.71429	18
610.57141	19.859917
611.42859	20.973459
612.28571	19.068445
613.14288	22.8179
614	20.102215
614.85712	21.146124
615.71429	21.619661
616.57141	21.171232
617.42859	25
618.28571	24.67716
619.14288	25.836245
620	25.294174
620.85712	21.82548
621.71429	21.995554
622.57141	22.18358
623.42859	25.772409
624.28571	22.549213
625.14288	17.957209
626	21.367422
626.85712	26.869482
627.71429	20.626102
628.57141	22.459314
629.42859	19.358334
630.28571	18.043913
631.14288	20.039324
632	28.949717
632.85712	27.517427
633.71429	22.420753
634.57141	19.381968
635.42859	21.237301
636.28571	22.568796
637.14288	23.334724
638	23.520651
638.85712	26.428375
639.71429	24.149183
640.57141	20.476692
641.42859	24.000423
642.28571	25.139715
643.14288	18.654337
644	20.303572
644.85712	26.59197
645.71429	21.481709
646.57141	20.862841
647.42859	14.610523
648.28571	22.66765
649.14288	18.977758
650	17.061651
