50	14.702052
50.857143	13.020481
51.714287	12
52.57143	12
53.42857	12.53219
54.285713	14.469758
55.142857	16.448858
56	15.372366
56.857143	15.187592
57.714287	18.352402
58.57143	17.847233
59.42857	20
60.285713	19.800468
61.142857	19.158699
62	20.348967
62.857143	22.619764
63.714287	18.107588
64.571426	20.987293
65.428574	27.674299
66.285713	30.740324
67.14286	31.873611
68	28.664536
68.85714	27.20579
69.714287	32.282501
70.571426	37.567261
71.428574	40.346748
72.285713	42.268139
73.14286	36.456615
74	33.667168
74.85714	35.516678
75.714287	38.388634
76.571426	41
77.428574	41
78.285713	39.554424
79.14286	35.708832
80	33.85284
80.85714	36.983437
81.714287	40.415035
82.571426	39.968803
83.428574	30.786648
84.285713	36.372143
85.14286	40.110088
86	41.948563
86.85714	39.061985
87.714287	37.112236
88.571426	34.280823
89.428574	31.393454
90.285713	34.325588
91.14286	37.382084
92	40.270252
92.85714	43.885174
93.714287	36.096794
94.571426	36.534943
95.428574	37.167233
96.285713	38.877331
97.14286	37.761597
98	36.006142
98.85714	38.870468
99.714287	38.837948
100.57143	36
101.42857	36.721149
102.28571	37.022339
103.14286	35.289757
104	36.254326
104.85714	35.899223
105.71429	34.032059
106.57143	41.792702
107.42857	35.230995
108.28571	36.75396
109.14286	34.093235
110	36.026962
110.85714	37.956287
111.71429	34.219334
112.57143	40.370964
113.42857	44.508698
114.28571	39.102558
115.14286	39.619087
116	39.222939
116.85714	44.943069
117.71429	42.03027
118.57143	38.647758
119.42857	41.859283
120.28571	40.332947
121.14286	40.311344
122	44.179836
122.85714	44.973625
123.71429	46.407513
124.57143	44.062897
125.42857	37.584003
126.28571	38.153732
127.14286	40.706505
128	41.677986
128.85715	41.580322
129.71428	43
130.57143	42.547134
131.42857	41.195549
132.28572	43.153214
133.14285	48.061722
134	42.517151
134.85715	46.781296
135.71428	44.084705
136.57143	45.912651
137.42857	37.185055
138.28572	37
139.14285	41.595989
140	47.335251
140.85715	35.969799
141.71428	53.078209
142.57143	49.002281
143.42857	43.919491
144.28572	45.969479
145.14285	40.578171
146	43.473328
146.85715	45.345112
147.71428	47.502792
148.57143	50.193195
149.42857	49.297237
150.28572	46.922668
151.14285	45.488937
152	41.132027
152.85715	42.912987
153.71428	49.147434
154.57143	48.797539
155.42857	48.884525
156.28572	47.343521
157.14285	48.945953
158	50.136318
158.85715	47.73843
159.71428	47.233639
160.57143	48
161.42857	47.819572
162.28572	46.694481
163.14285	44.623569
164	42.200188
164.85715	43.562828
165.71428	38.621006
166.57143	50.794064
167.42857	41.041851
168.28572	41.968781
169.14285	36.33543
170	38.752102
170.85715	44.356422
171.71428	46.732624
172.57143	49.525227
173.42857	45.921967
174.28572	47.373276
175.14285	44.938908
176	45.481644
176.85715	48.868084
177.71428	49.308357
178.57143	55.672794
179.42857	51.918831
180.28572	49.856445
181.14285	49.810905
182	51.285145
182.85715	50.266033
183.71428	50.613091
184.57143	50.00222
185.42857	45.093102
186.28572	45.264114
187.14285	48.428787
188	46.156921
188.85715	48.137836
189.71428	56.916527
190.57143	54.322418
191.42857	50.473927
192.28572	45.291931
193.14285	44.111115
194	42.965412
194.85715	54.548138
195.71428	51.979458
196.57143	45.811539
197.42857	37.928787
198.28572	47.721645
199.14285	46
200	45.903648
200.85715	45.750622
201.71428	54.622875
202.57143	47.901642
203.42857	44.952942
204.28572	41.036625
205.14285	53.610329
206	47.354973
206.85715	52.585266
207.71428	47.537048
208.57143	46.109974
209.42857	49.478626
210.28572	45.753132
211.14285	50.804222
212	49.566929
212.85715	49
213.71428	52.857674
214.57143	51.744892
215.42857	56.869774
216.28572	51.852859
217.14285	55.256374
218	51.904232
218.85715	53.61092
219.71428	56
220.57143	53.513153
221.42857	58.63868
222.28572	59.493038
223.14285	54.732277
224	53
224.85715	58.31675
225.71428	60.429287
226.57143	58.496773
227.42857	54.684395
228.28572	50.462234
229.14285	52.780937
230	54.571941
230.85715	53.588673
231.71428	53.788502
232.57143	52.355568
233.42857	49.443222
234.28572	48.89114
235.14285	44.97612
236	46.812244
236.85715	40.810295
237.71428	39.690353
238.57143	43.734936
239.42857	41.999073
240.28572	39.469856
241.14285	39.689442
242	35.40773
242.85715	37.378807
243.71428	38.825397
244.57143	37.525055
245.42857	35.144127
246.28572	36.520084
247.14285	40.23201
248	41.183296
248.85715	35.144585
249.71428	45.99052
250.57143	32.883106
251.42857	31.089777
252.28572	32.874332
253.14285	28.981951
254	28.057156
254.85715	39.898785
255.71428	41.95694
256.57144	34.276173
257.42856	32.094921
258.28571	35.758934
259.14285	40.634998
260	34.599659
260.85715	39.410805
261.71429	39.110657
262.57144	43.384762
263.42856	40.532944
264.28571	34.870602
265.14285	39.056885
266	42.492413
266.85715	35.629997
267.71429	34
268.57144	35.594559
269.42856	37.572262
270.28571	31.803453
271.14285	39.157207
272	32.957203
272.85715	29.257122
273.71429	34.853687
274.57144	36.279369
275.42856	42.402142
276.28571	38.689808
277.14285	39.451588
278	36.91256
278.85715	31.643135
279.71429	37.949059
280.57144	40.041615
281.42856	42.863911
282.28571	35.481361
283.14285	35.619755
284	43.310715
284.85715	47.213509
285.71429	46.803394
286.57144	44.81823
287.42856	37.596291
288.28571	39.887112
289.14285	43.869148
290	40.770679
290.85715	41.196175
291.71429	46.787708
292.57144	48.396969
293.42856	40.156914
294.28571	38.667881
295.14285	41.975677
296	45.540836
296.85715	49.502956
297.71429	48.509171
298.57144	45.5765
299.42856	41.089886
300.28571	36.648411
301.14285	44.2183
302	50.954018
302.85715	42.281681
303.71429	41.678352
304.57144	45
305.42856	46.736801
306.28571	45.568691
307.14285	42.694847
308	46.255802
308.85715	45.93206
309.71429	44.226021
310.57144	43.173149
311.42856	39.798222
312.28571	42.972282
313.14285	46.389885
314	45.072899
314.85715	42.762119
315.71429	42.116039
316.57144	39
317.42856	43.422192
318.28571	49.541973
319.14285	47.721207
320	45.788857
320.85715	44.954884
321.71429	51.185143
322.57144	47.044987
323.42856	49.344883
324.28571	49.316936
325.14285	44.609188
326	38.675026
326.85715	38.662224
327.71429	41.303307
328.57144	50.023773
329.42856	47.312813
330.28571	47.070511
331.14285	45.531391
332	47.253368
332.85715	33.883194
333.71429	40.318798
334.57144	42.590996
335.42856	44.415928
336.28571	43.531181
337.14285	49.630394
338	49.425011
338.85715	45.05801
339.71429	45.51173
340.57144	51.93935
341.42856	49.927406
342.28571	43.188469
343.14285	50.190933
344	54.062485
344.85715	51.373905
345.71429	49.37447
346.57144	47.057232
347.42856	45.945232
348.28571	51.150749
349.14285	59.267307
350	57.549007
350.85715	49.591087
351.71429	51.719021
352.57144	51.901409
353.42856	57.02853
354.28571	58.569458
355.14285	62.403908
356	54.670567
356.85715	54.662437
357.71429	55.335442
358.57144	53.329834
359.42856	52
360.28571	53.022755
361.14285	56.031956
362	57.305702
362.85715	56.70079
363.71429	58.707474
364.57144	62.857418
365.42856	65.11422
366.28571	63.27113
367.14285	72.298744
368	70.562653
368.85715	64.76413
369.71429	76
370.57144	72.929085
371.42856	71.880562
372.28571	78.392326
373.14285	80.586845
374	83.802338
374.85715	90.680206
375.71429	96.948059
376.57144	102.32282
377.42856	115.2672
378.28571	125.54646
379.14285	142.18829
380	153.38548
380.85715	171.9088
381.71429	201.96352
382.57144	223.55832
383.42856	246.57288
384.28571	258.0824
385.14285	247.04993
386	231.05907
386.85715	191.03444
387.71429	146.64517
388.57144	128.00711
389.42856	109.12202
390.28571	78.621605
391.14285	69.574142
392	71.53244
392.85715	69.8396
393.71429	68.54805
394.57144	70.667549
395.42856	74.820099
396.28571	74.140068
397.14285	82.44706
398	90.588509
398.85715	99.359825
399.71429	109.85488
400.57144	125.91868
401.42856	157.71761
402.28571	198.00101
403.14285	252.84802
404	309.55832
404.85715	380.98694
405.71429	497.92563
406.57144	578.76099
407.42856	618.12268
408.28571	626.59601
409.14285	559.00122
410	464.1456
410.85715	373.57275
411.71429	288.31595
412.57144	213.44342
413.42856	161.54999
414.28571	133.90811
415.14285	113.23388
416	111.39362
416.85715	97.438065
417.71429	84.151436
418.57144	86.995079
419.42856	67.73407
420.28571	67.425583
421.14285	73.210899
422	74
422.85715	69.535393
423.71429	71.715912
424.57144	71.080017
425.42856	57.941536
426.28571	61.726959
427.14285	61.041855
428	64.883904
428.85715	64.016083
429.71429	62.006145
430.57144	68.962479
431.42856	66.051414
432.28571	67.726868
433.14285	61.473118
434	69.042557
434.85715	57.22942
435.71429	70.139198
436.57144	62
437.42856	62.628796
438.28571	68.397362
439.14285	76.074974
440	71.852043
440.85715	76.370209
441.71429	77.798546
442.57144	76.350761
443.42856	75.164398
444.28571	77.51487
445.14285	74.051544
446	75.322945
446.85715	71.88549
447.71429	80.565712
448.57144	89.728912
449.42856	83.491234
450.28571	92.724731
451.14285	95.514771
452	96.812935
452.85715	91.289352
453.71429	86
454.57144	83.762001
455.42856	84.252281
456.28571	87.033875
457.14285	87.003166
458	84.367378
458.85715	84.755554
459.71429	78.559349
460.57144	79.613792
461.42856	84.816345
462.28571	76.680687
463.14285	74.516571
464	74.703117
464.85715	75.335701
465.71429	71.188538
466.57144	57.689178
467.42856	71.12101
468.28571	71.304352
469.14285	75.874527
470	63.108051
470.85715	63.823059
471.71429	61.70396
472.57144	54.245899
473.42856	48.676895
474.28571	54.195427
475.14285	50.471951
476	41.643513
476.85715	32.455299
477.71429	42.672508
478.57144	38.044216
479.42856	42.963402
480.28571	40.133278
481.14285	43.289543
482	31.939148
482.85715	42.00349
483.71429	33.484612
484.57144	37.285526
485.42856	39
486.28571	39.565971
487.14285	40.105137
488	34.631683
488.85715	39.742958
489.71429	38.441559
490.57144	37.604424
491.42856	40.305023
492.28571	40.20348
493.14285	35
494	37.378139
494.85715	38.479229
495.71429	35.888767
496.57144	36.531536
497.42856	38.463951
498.28571	43.068718
499.14285	37.959717
500	34.831314
500.85715	42.329586
501.71429	47.233372
502.57144	46.074451
503.42856	41.001404
504.28571	40.383816
505.14285	39.563419
506	41.971874
506.85715	46.844624
507.71429	47.204384
508.57144	44.532822
509.42856	44.847202
510.28571	45.873795
511.14285	50.504368
512	56.568207
512.85712	68.435646
513.71429	67.039513
514.57141	95.038185
515.42859	101.26917
516.28571	139.64688
517.14288	201.3373
518	286.48831
518.85712	379.44669
519.71429	433.66211
520.57141	486.20074
521.42859	477.52646
522.28571	402.99518
523.14288	291.63116
524	199.47899
524.85712	137.36578
525.71429	108.41238
526.57141	89.978195
527.42859	80.120293
528.28571	67.179253
529.14288	59.467495
530	59.963276
530.85712	59
531.71429	53.215641
532.57141	46.564293
533.42859	44.361477
534.28571	48.009335
535.14288	47.900913
536	53.572506
536.85712	43.075428
537.71429	39.790298
538.57141	49.87001
539.42859	49.440437
540.28571	43.698948
541.14288	47.580967
542	43.265251
542.85712	41.039948
543.71429	39.978374
544.57141	37.779633
545.42859	34.275276
546.28571	48.511875
547.14288	36
548	37.54113
548.85712	45.410175
549.71429	45.807587
550.57141	41.188065
551.42859	40.520164
552.28571	41.980751
553.14288	40.967167
554	44.38269
554.85712	42
555.71429	43.888142
556.57141	40.944969
557.42859	41.391155
558.28571	48.870228
559.14288	44.316654
560	43.208549
560.85712	41.615368
561.71429	43.561245
562.57141	44.25235
563.42859	46.343685
564.28571	47.816254
565.14288	48
566	43.56126
566.85712	45.770859
567.71429	46
568.57141	44.008652
569.42859	51.808811
570.28571	45.931797
571.14288	46.463814
572	57.448452
572.85712	48
573.71429	49.071514
574.57141	50.740616
575.42859	43.712116
576.28571	44.62429
577.14288	48.361912
578	46.605545
578.85712	45.181828
579.71429	48.474892
580.57141	45.918274
581.42859	47.960342
582.28571	49.644802
583.14288	45.493744
584	45.332062
584.85712	54.457218
585.71429	49.086094
586.57141	49.914471
587.42859	49.356796
588.28571	55.879761
589.14288	50.695972
590	50.939365
590.85712	61.757984
591.71429	50.057461
592.57141	53.116192
593.42859	55.496746
594.28571	59.306396
595.14288	55.53981
596	58
596.85712	58.260864
597.71429	58.397945
598.57141	57.342243
599.42859	58
600.28571	58.424015
601.14288	57.605186
602	56.507393
602.85712	52.062752
603.71429	46.229591
604.57141	48.164543
605.42859	50
606.28571	48.567558
607.14288	52.555553
608	43.568623
608.85712	39.312927
609.71429	45.205322
610.57141	42.280167
611.42859	48.814209
612.28571	46.880219
613.14288	40.060699
614	41.613293
614.85712	46.269379
615.71429	43.14101
616.57141	46.82877
617.42859	44.113949
618.28571	47
619.14288	45.16375
620	46.117588
620.85712	48.349041
621.71429	38.988876
622.57141	36.183582
623.42859	37.409195
624.28571	42.722439
625.14288	43.276276
626	42.727905
626.85712	49.19117
627.71429	41.168137
628.57141	39.86483
629.42859	44.552086
630.28571	45
631.14288	47.973789
632	42.20113
632.85712	46
633.71429	44.551884
634.57141	38.100819
635.42859	44.389694
636.28571	38.559582
637.14288	46.663189
638	48.479351
638.85712	44.286495
639.71429	41.524864
640.57141	44.139847
641.42859	49.857445
642.28571	50.139717
643.14288	47.663586
644	45.565475
644.85712	41.173359
645.71429	41.629574
646.57141	41.137157
647.42859	42.825565
648.28571	40.110783
649.14288	36.08897
650	43.691742
